'Elapsed time','ECG ECG'
'seconds','mV'
0.000,0.003
0.002,0.002
0.004,0.003
0.006,0.007
0.008,0.013
0.010,0.019
0.012,0.025
0.014,0.028
0.016,0.027
0.018,0.021
0.020,0.013
0.022,0.002
0.024,-0.008
0.026,-0.018
0.028,-0.026
0.030,-0.033
0.032,-0.040
0.034,-0.048
0.036,-0.056
0.038,-0.065
0.040,-0.073
0.042,-0.078
0.044,-0.081
0.046,-0.081
0.048,-0.079
0.050,-0.076
0.052,-0.075
0.054,-0.075
0.056,-0.078
0.058,-0.082
0.060,-0.087
0.062,-0.091
0.064,-0.094
0.066,-0.094
0.068,-0.092
0.070,-0.088
0.072,-0.085
0.074,-0.084
0.076,-0.085
0.078,-0.088
0.080,-0.091
0.082,-0.094
0.084,-0.095
0.086,-0.093
0.088,-0.089
0.090,-0.083
0.092,-0.078
0.094,-0.075
0.096,-0.075
0.098,-0.080
0.100,-0.089
0.102,-0.101
0.104,-0.113
0.106,-0.123
0.108,-0.130
0.110,-0.130
0.112,-0.122
0.114,-0.102
0.116,-0.069
0.118,-0.019
0.120,0.048
0.122,0.133
0.124,0.232
0.126,0.340
0.128,0.448
0.130,0.547
0.132,0.627
0.134,0.683
0.136,0.708
0.138,0.698
0.140,0.649
0.142,0.558
0.144,0.429
0.146,0.271
0.148,0.097
0.150,-0.074
0.152,-0.222
0.154,-0.334
0.156,-0.404
0.158,-0.434
0.160,-0.435
0.162,-0.416
0.164,-0.389
0.166,-0.361
0.168,-0.335
0.170,-0.313
0.172,-0.294
0.174,-0.277
0.176,-0.261
0.178,-0.244
0.180,-0.224
0.182,-0.202
0.184,-0.176
0.186,-0.149
0.188,-0.122
0.190,-0.099
0.192,-0.083
0.194,-0.075
0.196,-0.075
0.198,-0.079
0.200,-0.084
0.202,-0.088
0.204,-0.088
0.206,-0.084
0.208,-0.076
0.210,-0.066
0.212,-0.057
0.214,-0.051
0.216,-0.047
0.218,-0.047
0.220,-0.049
0.222,-0.051
0.224,-0.052
0.226,-0.050
0.228,-0.047
0.230,-0.042
0.232,-0.037
0.234,-0.032
0.236,-0.030
0.238,-0.031
0.240,-0.033
0.242,-0.035
0.244,-0.035
0.246,-0.033
0.248,-0.030
0.250,-0.025
0.252,-0.021
0.254,-0.018
0.256,-0.018
0.258,-0.019
0.260,-0.022
0.262,-0.024
0.264,-0.025
0.266,-0.025
0.268,-0.022
0.270,-0.019
0.272,-0.014
0.274,-0.010
0.276,-0.006
0.278,-0.003
0.280,-0.001
0.282,0.002
0.284,0.003
0.286,0.005
0.288,0.006
0.290,0.007
0.292,0.008
0.294,0.009
0.296,0.009
0.298,0.011
0.300,0.012
0.302,0.014
0.304,0.016
0.306,0.018
0.308,0.020
0.310,0.022
0.312,0.024
0.314,0.027
0.316,0.030
0.318,0.033
0.320,0.036
0.322,0.039
0.324,0.042
0.326,0.044
0.328,0.048
0.330,0.052
0.332,0.057
0.334,0.063
0.336,0.070
0.338,0.078
0.340,0.084
0.342,0.090
0.344,0.096
0.346,0.101
0.348,0.106
0.350,0.111
0.352,0.117
0.354,0.123
0.356,0.131
0.358,0.139
0.360,0.147
0.362,0.156
0.364,0.165
0.366,0.173
0.368,0.181
0.370,0.189
0.372,0.197
0.374,0.204
0.376,0.211
0.378,0.218
0.380,0.225
0.382,0.231
0.384,0.237
0.386,0.242
0.388,0.248
0.390,0.253
0.392,0.257
0.394,0.260
0.396,0.261
0.398,0.260
0.400,0.258
0.402,0.256
0.404,0.253
0.406,0.250
0.408,0.248
0.410,0.244
0.412,0.238
0.414,0.230
0.416,0.220
0.418,0.208
0.420,0.194
0.422,0.180
0.424,0.166
0.426,0.152
0.428,0.138
0.430,0.123
0.432,0.108
0.434,0.094
0.436,0.081
0.438,0.068
0.440,0.057
0.442,0.046
0.444,0.036
0.446,0.027
0.448,0.017
0.450,0.009
0.452,0.001
0.454,-0.006
0.456,-0.012
0.458,-0.017
0.460,-0.020
0.462,-0.024
0.464,-0.027
0.466,-0.031
0.468,-0.034
0.470,-0.037
0.472,-0.039
0.474,-0.041
0.476,-0.044
0.478,-0.046
0.480,-0.048
0.482,-0.051
0.484,-0.053
0.486,-0.055
0.488,-0.055
0.490,-0.055
0.492,-0.055
0.494,-0.054
0.496,-0.052
0.498,-0.051
0.500,-0.049
0.502,-0.047
0.504,-0.047
0.506,-0.047
0.508,-0.048
0.510,-0.050
0.512,-0.051
0.514,-0.052
0.516,-0.052
0.518,-0.051
0.520,-0.049
0.522,-0.047
0.524,-0.047
0.526,-0.048
0.528,-0.050
0.530,-0.053
0.532,-0.055
0.534,-0.055
0.536,-0.054
0.538,-0.053
0.540,-0.051
0.542,-0.050
0.544,-0.049
0.546,-0.049
0.548,-0.048
0.550,-0.048
0.552,-0.048
0.554,-0.048
0.556,-0.049
0.558,-0.050
0.560,-0.051
0.562,-0.051
0.564,-0.051
0.566,-0.051
0.568,-0.050
0.570,-0.050
0.572,-0.050
0.574,-0.050
0.576,-0.049
0.578,-0.049
0.580,-0.048
0.582,-0.048
0.584,-0.048
0.586,-0.047
0.588,-0.047
0.590,-0.047
0.592,-0.048
0.594,-0.049
0.596,-0.051
0.598,-0.054
0.600,-0.057
0.602,-0.060
0.604,-0.061
0.606,-0.061
0.608,-0.060
0.610,-0.058
0.612,-0.056
0.614,-0.055
0.616,-0.055
0.618,-0.056
0.620,-0.057
0.622,-0.057
0.624,-0.057
0.626,-0.057
0.628,-0.056
0.630,-0.055
0.632,-0.055
0.634,-0.056
0.636,-0.058
0.638,-0.059
0.640,-0.060
0.642,-0.061
0.644,-0.060
0.646,-0.059
0.648,-0.057
0.650,-0.056
0.652,-0.054
0.654,-0.054
0.656,-0.054
0.658,-0.055
0.660,-0.057
0.662,-0.059
0.664,-0.060
0.666,-0.061
0.668,-0.062
0.670,-0.061
0.672,-0.060
0.674,-0.059
0.676,-0.057
0.678,-0.055
0.680,-0.054
0.682,-0.055
0.684,-0.056
0.686,-0.059
0.688,-0.062
0.690,-0.064
0.692,-0.066
0.694,-0.065
0.696,-0.064
0.698,-0.061
0.700,-0.059
0.702,-0.057
0.704,-0.056
0.706,-0.056
0.708,-0.057
0.710,-0.057
0.712,-0.057
0.714,-0.055
0.716,-0.052
0.718,-0.048
0.720,-0.044
0.722,-0.039
0.724,-0.035
0.726,-0.033
0.728,-0.032
0.730,-0.032
0.732,-0.033
0.734,-0.034
0.736,-0.034
0.738,-0.033
0.740,-0.031
0.742,-0.026
0.744,-0.020
0.746,-0.013
0.748,-0.006
0.750,0.001
0.752,0.006
0.754,0.010
0.756,0.011
0.758,0.012
0.760,0.013
0.762,0.014
0.764,0.018
0.766,0.024
0.768,0.031
0.770,0.037
0.772,0.042
0.774,0.043
0.776,0.040
0.778,0.035
0.780,0.027
0.782,0.017
0.784,0.008
0.786,-0.002
0.788,-0.011
0.790,-0.019
0.792,-0.028
0.794,-0.036
0.796,-0.044
0.798,-0.051
0.800,-0.058
0.802,-0.064
0.804,-0.069
0.806,-0.072
0.808,-0.074
0.810,-0.074
0.812,-0.073
0.814,-0.071
0.816,-0.069
0.818,-0.069
0.820,-0.071
0.822,-0.074
0.824,-0.078
0.826,-0.081
0.828,-0.082
0.830,-0.081
0.832,-0.078
0.834,-0.076
0.836,-0.075
0.838,-0.076
0.840,-0.080
0.842,-0.084
0.844,-0.087
0.846,-0.088
0.848,-0.086
0.850,-0.081
0.852,-0.075
0.854,-0.071
0.856,-0.069
0.858,-0.072
0.860,-0.079
0.862,-0.090
0.864,-0.103
0.866,-0.116
0.868,-0.125
0.870,-0.129
0.872,-0.125
0.874,-0.112
0.876,-0.088
0.878,-0.050
0.880,0.003
0.882,0.074
0.884,0.162
0.886,0.264
0.888,0.374
0.890,0.484
0.892,0.582
0.894,0.662
0.896,0.717
0.898,0.740
0.900,0.726
0.902,0.671
0.904,0.572
0.906,0.433
0.908,0.263
0.910,0.079
0.912,-0.100
0.914,-0.253
0.916,-0.368
0.918,-0.438
0.920,-0.466
0.922,-0.464
0.924,-0.442
0.926,-0.411
0.928,-0.380
0.930,-0.351
0.932,-0.327
0.934,-0.307
0.936,-0.290
0.938,-0.273
0.940,-0.255
0.942,-0.233
0.944,-0.207
0.946,-0.178
0.948,-0.146
0.950,-0.117
0.952,-0.092
0.954,-0.075
0.956,-0.067
0.958,-0.067
0.960,-0.071
0.962,-0.076
0.964,-0.079
0.966,-0.079
0.968,-0.076
0.970,-0.068
0.972,-0.059
0.974,-0.051
0.976,-0.044
0.978,-0.039
0.980,-0.038
0.982,-0.038
0.984,-0.039
0.986,-0.039
0.988,-0.037
0.990,-0.033
0.992,-0.028
0.994,-0.025
0.996,-0.023
0.998,-0.025
1.000,-0.029
1.002,-0.033
1.004,-0.036
1.006,-0.037
1.008,-0.034
1.010,-0.029
1.012,-0.023
1.014,-0.018
1.016,-0.014
1.018,-0.013
1.020,-0.013
1.022,-0.015
1.024,-0.016
1.026,-0.016
1.028,-0.014
1.030,-0.011
1.032,-0.007
1.034,-0.003
1.036,-0.000
1.038,0.001
1.040,0.002
1.042,0.001
1.044,0.000
1.046,0.000
1.048,0.001
1.050,0.002
1.052,0.005
1.054,0.009
1.056,0.012
1.058,0.016
1.060,0.019
1.062,0.022
1.064,0.024
1.066,0.026
1.068,0.028
1.070,0.031
1.072,0.034
1.074,0.037
1.076,0.041
1.078,0.045
1.080,0.049
1.082,0.053
1.084,0.057
1.086,0.060
1.088,0.062
1.090,0.063
1.092,0.064
1.094,0.066
1.096,0.070
1.098,0.075
1.100,0.082
1.102,0.089
1.104,0.097
1.106,0.104
1.108,0.111
1.110,0.119
1.112,0.128
1.114,0.136
1.116,0.145
1.118,0.153
1.120,0.160
1.122,0.166
1.124,0.171
1.126,0.176
1.128,0.182
1.130,0.188
1.132,0.194
1.134,0.201
1.136,0.208
1.138,0.215
1.140,0.222
1.142,0.228
1.144,0.235
1.146,0.241
1.148,0.247
1.150,0.253
1.152,0.258
1.154,0.262
1.156,0.267
1.158,0.271
1.160,0.274
1.162,0.277
1.164,0.278
1.166,0.277
1.168,0.274
1.170,0.268
1.172,0.260
1.174,0.249
1.176,0.238
1.178,0.226
1.180,0.214
1.182,0.203
1.184,0.192
1.186,0.181
1.188,0.169
1.190,0.157
1.192,0.144
1.194,0.130
1.196,0.115
1.198,0.100
1.200,0.085
1.202,0.071
1.204,0.059
1.206,0.048
1.208,0.039
1.210,0.030
1.212,0.022
1.214,0.014
1.216,0.006
1.218,-0.002
1.220,-0.009
1.222,-0.016
1.224,-0.022
1.226,-0.028
1.228,-0.032
1.230,-0.036
1.232,-0.039
1.234,-0.041
1.236,-0.043
1.238,-0.043
1.240,-0.044
1.242,-0.045
1.244,-0.046
1.246,-0.048
1.248,-0.050
1.250,-0.051
1.252,-0.051
1.254,-0.050
1.256,-0.049
1.258,-0.048
1.260,-0.048
1.262,-0.049
1.264,-0.050
1.266,-0.051
1.268,-0.053
1.270,-0.055
1.272,-0.056
1.274,-0.056
1.276,-0.056
1.278,-0.055
1.280,-0.053
1.282,-0.051
1.284,-0.050
1.286,-0.050
1.288,-0.050
1.290,-0.051
1.292,-0.052
1.294,-0.053
1.296,-0.053
1.298,-0.054
1.300,-0.055
1.302,-0.056
1.304,-0.056
1.306,-0.057
1.308,-0.056
1.310,-0.055
1.312,-0.054
1.314,-0.052
1.316,-0.052
1.318,-0.052
1.320,-0.053
1.322,-0.054
1.324,-0.055
1.326,-0.056
1.328,-0.056
1.330,-0.056
1.332,-0.055
1.334,-0.055
1.336,-0.056
1.338,-0.056
1.340,-0.057
1.342,-0.057
1.344,-0.056
1.346,-0.055
1.348,-0.054
1.350,-0.053
1.352,-0.053
1.354,-0.052
1.356,-0.052
1.358,-0.052
1.360,-0.053
1.362,-0.053
1.364,-0.054
1.366,-0.055
1.368,-0.056
1.370,-0.057
1.372,-0.057
1.374,-0.058
1.376,-0.058
1.378,-0.057
1.380,-0.055
1.382,-0.053
1.384,-0.051
1.386,-0.048
1.388,-0.047
1.390,-0.047
1.392,-0.048
1.394,-0.051
1.396,-0.054
1.398,-0.058
1.400,-0.060
1.402,-0.061
1.404,-0.062
1.406,-0.061
1.408,-0.061
1.410,-0.060
1.412,-0.060
1.414,-0.059
1.416,-0.058
1.418,-0.057
1.420,-0.056
1.422,-0.055
1.424,-0.055
1.426,-0.054
1.428,-0.054
1.430,-0.054
1.432,-0.054
1.434,-0.054
1.436,-0.054
1.438,-0.054
1.440,-0.055
1.442,-0.055
1.444,-0.056
1.446,-0.056
1.448,-0.056
1.450,-0.055
1.452,-0.054
1.454,-0.053
1.456,-0.051
1.458,-0.049
1.460,-0.047
1.462,-0.046
1.464,-0.047
1.466,-0.048
1.468,-0.051
1.470,-0.053
1.472,-0.054
1.474,-0.053
1.476,-0.050
1.478,-0.046
1.480,-0.041
1.482,-0.037
1.484,-0.033
1.486,-0.030
1.488,-0.027
1.490,-0.025
1.492,-0.023
1.494,-0.022
1.496,-0.020
1.498,-0.019
1.500,-0.019
1.502,-0.017
1.504,-0.014
1.506,-0.010
1.508,-0.003
1.510,0.005
1.512,0.013
1.514,0.021
1.516,0.026
1.518,0.028
1.520,0.029
1.522,0.028
1.524,0.028
1.526,0.029
1.528,0.032
1.530,0.036
1.532,0.040
1.534,0.044
1.536,0.046
1.538,0.045
1.540,0.043
1.542,0.039
1.544,0.033
1.546,0.025
1.548,0.015
1.550,0.004
1.552,-0.009
1.554,-0.021
1.556,-0.032
1.558,-0.042
1.560,-0.050
1.562,-0.056
1.564,-0.061
1.566,-0.065
1.568,-0.068
1.570,-0.069
1.572,-0.070
1.574,-0.069
1.576,-0.068
1.578,-0.068
1.580,-0.069
1.582,-0.073
1.584,-0.077
1.586,-0.081
1.588,-0.084
1.590,-0.084
1.592,-0.083
1.594,-0.079
1.596,-0.075
1.598,-0.073
1.600,-0.072
1.602,-0.074
1.604,-0.078
1.606,-0.083
1.608,-0.087
1.610,-0.089
1.612,-0.088
1.614,-0.084
1.616,-0.078
1.618,-0.072
1.620,-0.069
1.622,-0.069
1.624,-0.075
1.626,-0.084
1.628,-0.096
1.630,-0.109
1.632,-0.120
1.634,-0.127
1.636,-0.127
1.638,-0.120
1.640,-0.102
1.642,-0.073
1.644,-0.029
1.646,0.032
1.648,0.110
1.650,0.203
1.652,0.307
1.654,0.415
1.656,0.518
1.658,0.607
1.660,0.675
1.662,0.712
1.664,0.712
1.666,0.671
1.668,0.585
1.670,0.456
1.672,0.294
1.674,0.113
1.676,-0.068
1.678,-0.227
1.680,-0.351
1.682,-0.431
1.684,-0.467
1.686,-0.468
1.688,-0.446
1.690,-0.413
1.692,-0.378
1.694,-0.347
1.696,-0.323
1.698,-0.306
1.700,-0.292
1.702,-0.281
1.704,-0.269
1.706,-0.254
1.708,-0.234
1.710,-0.208
1.712,-0.177
1.714,-0.145
1.716,-0.115
1.718,-0.090
1.720,-0.073
1.722,-0.065
1.724,-0.065
1.726,-0.068
1.728,-0.072
1.730,-0.073
1.732,-0.070
1.734,-0.065
1.736,-0.057
1.738,-0.050
1.740,-0.045
1.742,-0.044
1.744,-0.044
1.746,-0.046
1.748,-0.047
1.750,-0.046
1.752,-0.043
1.754,-0.038
1.756,-0.033
1.758,-0.028
1.760,-0.024
1.762,-0.022
1.764,-0.022
1.766,-0.024
1.768,-0.026
1.770,-0.027
1.772,-0.027
1.774,-0.025
1.776,-0.022
1.778,-0.020
1.780,-0.017
1.782,-0.016
1.784,-0.015
1.786,-0.015
1.788,-0.016
1.790,-0.015
1.792,-0.014
1.794,-0.011
1.796,-0.008
1.798,-0.004
1.800,-0.000
1.802,0.002
1.804,0.004
1.806,0.005
1.808,0.006
1.810,0.006
1.812,0.007
1.814,0.009
1.816,0.010
1.818,0.012
1.820,0.014
1.822,0.016
1.824,0.018
1.826,0.020
1.828,0.023
1.830,0.027
1.832,0.031
1.834,0.035
1.836,0.038
1.838,0.041
1.840,0.043
1.842,0.044
1.844,0.045
1.846,0.046
1.848,0.048
1.850,0.051
1.852,0.054
1.854,0.058
1.856,0.064
1.858,0.070
1.860,0.078
1.862,0.085
1.864,0.092
1.866,0.098
1.868,0.103
1.870,0.108
1.872,0.111
1.874,0.115
1.876,0.120
1.878,0.125
1.880,0.131
1.882,0.138
1.884,0.146
1.886,0.154
1.888,0.163
1.890,0.171
1.892,0.179
1.894,0.187
1.896,0.195
1.898,0.204
1.900,0.212
1.902,0.220
1.904,0.227
1.906,0.234
1.908,0.239
1.910,0.244
1.912,0.248
1.914,0.252
1.916,0.256
1.918,0.260
1.920,0.264
1.922,0.268
1.924,0.271
1.926,0.274
1.928,0.276
1.930,0.277
1.932,0.277
1.934,0.274
1.936,0.268
1.938,0.261
1.940,0.252
1.942,0.241
1.944,0.230
1.946,0.218
1.948,0.205
1.950,0.193
1.952,0.179
1.954,0.165
1.956,0.149
1.958,0.133
1.960,0.116
1.962,0.100
1.964,0.085
1.966,0.072
1.968,0.060
1.970,0.049
1.972,0.039
1.974,0.030
1.976,0.021
1.978,0.012
1.980,0.004
1.982,-0.004
1.984,-0.012
1.986,-0.019
1.988,-0.025
1.990,-0.030
1.992,-0.034
1.994,-0.038
1.996,-0.041
1.998,-0.044
2.000,-0.046
2.002,-0.048
2.004,-0.050
2.006,-0.052
2.008,-0.054
2.010,-0.055
2.012,-0.056
2.014,-0.056
2.016,-0.056
2.018,-0.055
2.020,-0.055
2.022,-0.055
2.024,-0.056
2.026,-0.057
2.028,-0.058
2.030,-0.058
2.032,-0.059
2.034,-0.060
2.036,-0.061
2.038,-0.063
2.040,-0.065
2.042,-0.066
2.044,-0.067
2.046,-0.067
2.048,-0.066
2.050,-0.065
2.052,-0.064
2.054,-0.063
2.056,-0.062
2.058,-0.062
2.060,-0.061
2.062,-0.061
2.064,-0.062
2.066,-0.063
2.068,-0.064
2.070,-0.066
2.072,-0.068
2.074,-0.068
2.076,-0.068
2.078,-0.066
2.080,-0.064
2.082,-0.062
2.084,-0.061
2.086,-0.059
2.088,-0.058
2.090,-0.058
2.092,-0.057
2.094,-0.057
2.096,-0.057
2.098,-0.056
2.100,-0.056
2.102,-0.056
2.104,-0.055
2.106,-0.054
2.108,-0.053
2.110,-0.053
2.112,-0.053
2.114,-0.053
2.116,-0.053
2.118,-0.053
2.120,-0.052
2.122,-0.050
2.124,-0.048
2.126,-0.047
2.128,-0.046
2.130,-0.046
2.132,-0.047
2.134,-0.048
2.136,-0.049
2.138,-0.049
2.140,-0.049
2.142,-0.049
2.144,-0.049
2.146,-0.049
2.148,-0.049
2.150,-0.049
2.152,-0.049
2.154,-0.049
2.156,-0.050
2.158,-0.051
2.160,-0.053
2.162,-0.054
2.164,-0.054
2.166,-0.054
2.168,-0.053
2.170,-0.053
2.172,-0.053
2.174,-0.053
2.176,-0.054
2.178,-0.055
2.180,-0.057
2.182,-0.058
2.184,-0.058
2.186,-0.058
2.188,-0.057
2.190,-0.055
2.192,-0.054
2.194,-0.052
2.196,-0.050
2.198,-0.049
2.200,-0.047
2.202,-0.047
2.204,-0.046
2.206,-0.046
2.208,-0.045
2.210,-0.043
2.212,-0.041
2.214,-0.038
2.216,-0.035
2.218,-0.034
2.220,-0.033
2.222,-0.033
2.224,-0.034
2.226,-0.035
2.228,-0.034
2.230,-0.032
2.232,-0.028
2.234,-0.022
2.236,-0.016
2.238,-0.010
2.240,-0.004
2.242,0.001
2.244,0.004
2.246,0.007
2.248,0.009
2.250,0.012
2.252,0.015
2.254,0.020
2.256,0.026
2.258,0.032
2.260,0.038
2.262,0.041
2.264,0.042
2.266,0.039
2.268,0.033
2.270,0.024
2.272,0.014
2.274,0.003
2.276,-0.008
2.278,-0.017
2.280,-0.026
2.282,-0.032
2.284,-0.038
2.286,-0.044
2.288,-0.049
2.290,-0.055
2.292,-0.061
2.294,-0.067
2.296,-0.070
2.298,-0.072
2.300,-0.073
2.302,-0.073
2.304,-0.072
2.306,-0.072
2.308,-0.073
2.310,-0.074
2.312,-0.075
2.314,-0.075
2.316,-0.075
2.318,-0.074
2.320,-0.075
2.322,-0.076
2.324,-0.078
2.326,-0.081
2.328,-0.085
2.330,-0.087
2.332,-0.087
2.334,-0.086
2.336,-0.082
2.338,-0.078
2.340,-0.073
2.342,-0.069
2.344,-0.068
2.346,-0.071
2.348,-0.078
2.350,-0.087
2.352,-0.097
2.354,-0.108
2.356,-0.116
2.358,-0.120
2.360,-0.118
2.362,-0.110
2.364,-0.092
2.366,-0.063
2.368,-0.019
2.370,0.042
2.372,0.120
2.374,0.215
2.376,0.321
2.378,0.430
2.380,0.535
2.382,0.624
2.384,0.689
2.386,0.723
2.388,0.720
2.390,0.674
2.392,0.584
2.394,0.453
2.396,0.289
2.398,0.110
2.400,-0.065
2.402,-0.218
2.404,-0.333
2.406,-0.404
2.408,-0.435
2.410,-0.433
2.412,-0.412
2.414,-0.382
2.416,-0.352
2.418,-0.326
2.420,-0.306
2.422,-0.291
2.424,-0.279
2.426,-0.268
2.428,-0.255
2.430,-0.238
2.432,-0.216
2.434,-0.188
2.436,-0.156
2.438,-0.123
2.440,-0.094
2.442,-0.071
2.444,-0.058
2.446,-0.054
2.448,-0.056
2.450,-0.062
2.452,-0.067
2.454,-0.068
2.456,-0.065
2.458,-0.059
2.460,-0.052
2.462,-0.046
2.464,-0.042
2.466,-0.040
2.468,-0.041
2.470,-0.042
2.472,-0.042
2.474,-0.041
2.476,-0.037
2.478,-0.033
2.480,-0.027
2.482,-0.022
2.484,-0.017
2.486,-0.015
2.488,-0.015
2.490,-0.016
2.492,-0.019
2.494,-0.020
2.496,-0.020
2.498,-0.018
2.500,-0.015
2.502,-0.012
2.504,-0.009
2.506,-0.007
2.508,-0.007
2.510,-0.008
2.512,-0.009
2.514,-0.009
2.516,-0.008
2.518,-0.006
2.520,-0.004
2.522,-0.001
2.524,0.000
2.526,0.001
2.528,0.002
2.530,0.002
2.532,0.002
2.534,0.002
2.536,0.003
2.538,0.004
2.540,0.007
2.542,0.009
2.544,0.013
2.546,0.017
2.548,0.021
2.550,0.025
2.552,0.029
2.554,0.032
2.556,0.035
2.558,0.037
2.560,0.039
2.562,0.041
2.564,0.043
2.566,0.046
2.568,0.048
2.570,0.051
2.572,0.053
2.574,0.056
2.576,0.059
2.578,0.063
2.580,0.068
2.582,0.074
2.584,0.081
2.586,0.088
2.588,0.095
2.590,0.100
2.592,0.105
2.594,0.110
2.596,0.115
2.598,0.120
2.600,0.126
2.602,0.132
2.604,0.138
2.606,0.144
2.608,0.150
2.610,0.156
2.612,0.162
2.614,0.170
2.616,0.178
2.618,0.186
2.620,0.194
2.622,0.201
2.624,0.208
2.626,0.215
2.628,0.221
2.630,0.228
2.632,0.235
2.634,0.242
2.636,0.249
2.638,0.254
2.640,0.259
2.642,0.263
2.644,0.266
2.646,0.268
2.648,0.270
2.650,0.271
2.652,0.271
2.654,0.269
2.656,0.267
2.658,0.262
2.660,0.255
2.662,0.246
2.664,0.236
2.666,0.225
2.668,0.213
2.670,0.201
2.672,0.188
2.674,0.174
2.676,0.160
2.678,0.144
2.680,0.127
2.682,0.110
2.684,0.093
2.686,0.078
2.688,0.066
2.690,0.055
2.692,0.046
2.694,0.037
2.696,0.028
2.698,0.019
2.700,0.009
2.702,0.001
2.704,-0.007
2.706,-0.013
2.708,-0.018
2.710,-0.023
2.712,-0.029
2.714,-0.034
2.716,-0.039
2.718,-0.043
2.720,-0.045
2.722,-0.046
2.724,-0.046
2.726,-0.047
2.728,-0.049
2.730,-0.052
2.732,-0.055
2.734,-0.058
2.736,-0.059
2.738,-0.059
2.740,-0.058
2.742,-0.057
2.744,-0.056
2.746,-0.056
2.748,-0.057
2.750,-0.058
2.752,-0.060
2.754,-0.062
2.756,-0.064
2.758,-0.066
2.760,-0.068
2.762,-0.068
2.764,-0.069
2.766,-0.068
2.768,-0.067
2.770,-0.066
2.772,-0.064
2.774,-0.062
2.776,-0.060
2.778,-0.059
2.780,-0.058
2.782,-0.059
2.784,-0.060
2.786,-0.061
2.788,-0.062
2.790,-0.063
2.792,-0.063
2.794,-0.064
2.796,-0.065
2.798,-0.066
2.800,-0.066
2.802,-0.067
2.804,-0.066
2.806,-0.065
2.808,-0.064
2.810,-0.062
2.812,-0.059
2.814,-0.057
2.816,-0.056
2.818,-0.055
2.820,-0.055
2.822,-0.055
2.824,-0.056
2.826,-0.058
2.828,-0.059
2.830,-0.059
2.832,-0.060
2.834,-0.060
2.836,-0.060
2.838,-0.060
2.840,-0.060
2.842,-0.060
2.844,-0.059
2.846,-0.057
2.848,-0.055
2.850,-0.053
2.852,-0.051
2.854,-0.050
2.856,-0.050
2.858,-0.051
2.860,-0.052
2.862,-0.052
2.864,-0.054
2.866,-0.056
2.868,-0.058
2.870,-0.060
2.872,-0.062
2.874,-0.063
2.876,-0.061
2.878,-0.059
2.880,-0.057
2.882,-0.054
2.884,-0.053
2.886,-0.053
2.888,-0.053
2.890,-0.055
2.892,-0.056
2.894,-0.057
2.896,-0.057
2.898,-0.057
2.900,-0.057
2.902,-0.057
2.904,-0.056
2.906,-0.057
2.908,-0.057
2.910,-0.058
2.912,-0.060
2.914,-0.062
2.916,-0.063
2.918,-0.064
2.920,-0.063
2.922,-0.062
2.924,-0.061
2.926,-0.059
2.928,-0.057
2.930,-0.055
2.932,-0.054
2.934,-0.054
2.936,-0.053
2.938,-0.054
2.940,-0.055
2.942,-0.056
2.944,-0.058
2.946,-0.060
2.948,-0.061
2.950,-0.061
2.952,-0.060
2.954,-0.059
2.956,-0.057
2.958,-0.055
2.960,-0.055
2.962,-0.055
2.964,-0.057
2.966,-0.059
2.968,-0.060
2.970,-0.060
2.972,-0.059
2.974,-0.056
2.976,-0.051
2.978,-0.046
2.980,-0.041
2.982,-0.036
2.984,-0.031
2.986,-0.028
2.988,-0.025
2.990,-0.023
2.992,-0.023
2.994,-0.023
2.996,-0.024
2.998,-0.024
3.000,-0.023
3.002,-0.020
3.004,-0.014
3.006,-0.008
3.008,-0.000
3.010,0.007
3.012,0.013
3.014,0.016
3.016,0.018
3.018,0.018
3.020,0.017
3.022,0.018
3.024,0.019
3.026,0.023
3.028,0.028
3.030,0.033
3.032,0.038
3.034,0.041
3.036,0.042
3.038,0.040
3.040,0.035
3.042,0.028
3.044,0.019
3.046,0.009
3.048,-0.001
3.050,-0.010
3.052,-0.020
3.054,-0.029
3.056,-0.039
3.058,-0.048
3.060,-0.057
3.062,-0.065
3.064,-0.070
3.066,-0.073
3.068,-0.074
3.070,-0.072
3.072,-0.070
3.074,-0.068
3.076,-0.068
3.078,-0.070
3.080,-0.074
3.082,-0.078
3.084,-0.081
3.086,-0.083
3.088,-0.082
3.090,-0.080
3.092,-0.077
3.094,-0.075
3.096,-0.073
3.098,-0.073
3.100,-0.075
3.102,-0.078
3.104,-0.082
3.106,-0.084
3.108,-0.084
3.110,-0.083
3.112,-0.081
3.114,-0.078
3.116,-0.076
3.118,-0.076
3.120,-0.080
3.122,-0.086
3.124,-0.095
3.126,-0.105
3.128,-0.115
3.130,-0.121
3.132,-0.122
3.134,-0.115
3.136,-0.098
3.138,-0.068
3.140,-0.023
3.142,0.039
3.144,0.118
3.146,0.214
3.148,0.319
3.150,0.428
3.152,0.530
3.154,0.618
3.156,0.682
3.158,0.717
3.160,0.717
3.162,0.677
3.164,0.594
3.166,0.468
3.168,0.309
3.170,0.129
3.172,-0.051
3.174,-0.211
3.176,-0.337
3.178,-0.419
3.180,-0.459
3.182,-0.465
3.184,-0.448
3.186,-0.419
3.188,-0.387
3.190,-0.356
3.192,-0.329
3.194,-0.305
3.196,-0.286
3.198,-0.269
3.200,-0.253
3.202,-0.235
3.204,-0.214
3.206,-0.188
3.208,-0.158
3.210,-0.127
3.212,-0.099
3.214,-0.077
3.216,-0.063
3.218,-0.059
3.220,-0.061
3.222,-0.065
3.224,-0.070
3.226,-0.071
3.228,-0.068
3.230,-0.061
3.232,-0.053
3.234,-0.046
3.236,-0.041
3.238,-0.039
3.240,-0.039
3.242,-0.041
3.244,-0.043
3.246,-0.043
3.248,-0.042
3.250,-0.038
3.252,-0.033
3.254,-0.028
3.256,-0.024
3.258,-0.022
3.260,-0.022
3.262,-0.023
3.264,-0.025
3.266,-0.026
3.268,-0.026
3.270,-0.024
3.272,-0.020
3.274,-0.016
3.276,-0.013
3.278,-0.010
3.280,-0.010
3.282,-0.011
3.284,-0.013
3.286,-0.014
3.288,-0.015
3.290,-0.015
3.292,-0.012
3.294,-0.009
3.296,-0.005
3.298,-0.002
3.300,-0.000
3.302,0.000
3.304,0.000
3.306,0.000
3.308,-0.000
3.310,0.001
3.312,0.003
3.314,0.005
3.316,0.009
3.318,0.012
3.320,0.014
3.322,0.017
3.324,0.019
3.326,0.021
3.328,0.023
3.330,0.025
3.332,0.028
3.334,0.030
3.336,0.031
3.338,0.033
3.340,0.035
3.342,0.037
3.344,0.041
3.346,0.046
3.348,0.052
3.350,0.058
3.352,0.064
3.354,0.069
3.356,0.073
3.358,0.077
3.360,0.081
3.362,0.085
3.364,0.091
3.366,0.098
3.368,0.105
3.370,0.113
3.372,0.120
3.374,0.126
3.376,0.131
3.378,0.136
3.380,0.142
3.382,0.148
3.384,0.155
3.386,0.163
3.388,0.171
3.390,0.179
3.392,0.187
3.394,0.196
3.396,0.205
3.398,0.213
3.400,0.221
3.402,0.229
3.404,0.235
3.406,0.241
3.408,0.245
3.410,0.249
3.412,0.252
3.414,0.256
3.416,0.259
3.418,0.263
3.420,0.267
3.422,0.270
3.424,0.273
3.426,0.274
3.428,0.273
3.430,0.269
3.432,0.264
3.434,0.256
3.436,0.246
3.438,0.235
3.440,0.224
3.442,0.212
3.444,0.199
3.446,0.185
3.448,0.170
3.450,0.155
3.452,0.140
3.454,0.125
3.456,0.111
3.458,0.098
3.460,0.086
3.462,0.074
3.464,0.062
3.466,0.049
3.468,0.037
3.470,0.026
3.472,0.017
3.474,0.009
3.476,0.003
3.478,-0.003
3.480,-0.009
3.482,-0.014
3.484,-0.019
3.486,-0.024
3.488,-0.028
3.490,-0.031
3.492,-0.033
3.494,-0.036
3.496,-0.038
3.498,-0.041
3.500,-0.043
3.502,-0.046
3.504,-0.048
3.506,-0.050
3.508,-0.052
3.510,-0.053
3.512,-0.053
3.514,-0.052
3.516,-0.052
3.518,-0.051
3.520,-0.051
3.522,-0.051
3.524,-0.051
3.526,-0.051
3.528,-0.051
3.530,-0.050
3.532,-0.049
3.534,-0.048
3.536,-0.048
3.538,-0.048
3.540,-0.049
3.542,-0.050
3.544,-0.051
3.546,-0.052
3.548,-0.052
3.550,-0.053
3.552,-0.053
3.554,-0.054
3.556,-0.054
3.558,-0.055
3.560,-0.055
3.562,-0.055
3.564,-0.054
3.566,-0.053
3.568,-0.052
3.570,-0.051
3.572,-0.050
3.574,-0.049
3.576,-0.050
3.578,-0.051
3.580,-0.052
3.582,-0.054
3.584,-0.054
3.586,-0.055
3.588,-0.054
3.590,-0.054
3.592,-0.052
3.594,-0.051
3.596,-0.049
3.598,-0.047
3.600,-0.045
3.602,-0.045
3.604,-0.045
3.606,-0.045
3.608,-0.046
3.610,-0.047
3.612,-0.048
3.614,-0.047
3.616,-0.047
3.618,-0.045
3.620,-0.044
3.622,-0.043
3.624,-0.042
3.626,-0.042
3.628,-0.043
3.630,-0.045
3.632,-0.046
3.634,-0.048
3.636,-0.048
3.638,-0.048
3.640,-0.047
3.642,-0.045
3.644,-0.044
3.646,-0.043
3.648,-0.044
3.650,-0.047
3.652,-0.050
3.654,-0.054
3.656,-0.057
3.658,-0.059
3.660,-0.059
3.662,-0.058
3.664,-0.056
3.666,-0.053
3.668,-0.051
3.670,-0.049
3.672,-0.048
3.674,-0.048
3.676,-0.048
3.678,-0.048
3.680,-0.048
3.682,-0.047
3.684,-0.046
3.686,-0.045
3.688,-0.043
3.690,-0.042
3.692,-0.041
3.694,-0.040
3.696,-0.041
3.698,-0.041
3.700,-0.043
3.702,-0.045
3.704,-0.047
3.706,-0.050
3.708,-0.051
3.710,-0.052
3.712,-0.052
3.714,-0.051
3.716,-0.050
3.718,-0.049
3.720,-0.049
3.722,-0.050
3.724,-0.051
3.726,-0.053
3.728,-0.055
3.730,-0.056
3.732,-0.056
3.734,-0.055
3.736,-0.054
3.738,-0.053
3.740,-0.053
3.742,-0.053
3.744,-0.054
3.746,-0.055
3.748,-0.056
3.750,-0.054
3.752,-0.052
3.754,-0.049
3.756,-0.045
3.758,-0.041
3.760,-0.037
3.762,-0.033
3.764,-0.029
3.766,-0.025
3.768,-0.022
3.770,-0.019
3.772,-0.017
3.774,-0.015
3.776,-0.013
3.778,-0.011
3.780,-0.009
3.782,-0.006
3.784,-0.002
3.786,0.003
3.788,0.009
3.790,0.015
3.792,0.021
3.794,0.026
3.796,0.030
3.798,0.032
3.800,0.032
3.802,0.033
3.804,0.034
3.806,0.035
3.808,0.038
3.810,0.040
3.812,0.040
3.814,0.039
3.816,0.036
3.818,0.032
3.820,0.027
3.822,0.023
3.824,0.018
3.826,0.013
3.828,0.006
3.830,-0.003
3.832,-0.014
3.834,-0.027
3.836,-0.041
3.838,-0.053
3.840,-0.063
3.842,-0.070
3.844,-0.073
3.846,-0.072
3.848,-0.070
3.850,-0.066
3.852,-0.062
3.854,-0.060
3.856,-0.061
3.858,-0.064
3.860,-0.067
3.862,-0.072
3.864,-0.075
3.866,-0.076
3.868,-0.075
3.870,-0.073
3.872,-0.071
3.874,-0.069
3.876,-0.070
3.878,-0.072
3.880,-0.076
3.882,-0.080
3.884,-0.082
3.886,-0.082
3.888,-0.081
3.890,-0.077
3.892,-0.074
3.894,-0.071
3.896,-0.071
3.898,-0.075
3.900,-0.082
3.902,-0.092
3.904,-0.104
3.906,-0.115
3.908,-0.123
3.910,-0.124
3.912,-0.117
3.914,-0.099
3.916,-0.068
3.918,-0.021
3.920,0.042
3.922,0.124
3.924,0.221
3.926,0.328
3.928,0.439
3.930,0.543
3.932,0.632
3.934,0.698
3.936,0.734
3.938,0.735
3.940,0.696
3.942,0.612
3.944,0.486
3.946,0.325
3.948,0.142
3.950,-0.042
3.952,-0.207
3.954,-0.337
3.956,-0.423
3.958,-0.466
3.960,-0.473
3.962,-0.456
3.964,-0.426
3.966,-0.393
3.968,-0.361
3.970,-0.332
3.972,-0.309
3.974,-0.289
3.976,-0.271
3.978,-0.255
3.980,-0.236
3.982,-0.213
3.984,-0.186
3.986,-0.155
3.988,-0.123
3.990,-0.094
3.992,-0.072
3.994,-0.059
3.996,-0.054
3.998,-0.056
4.000,-0.061
4.002,-0.065
4.004,-0.066
4.006,-0.063
4.008,-0.057
4.010,-0.049
4.012,-0.042
4.014,-0.037
4.016,-0.035
4.018,-0.036
4.020,-0.039
4.022,-0.041
4.024,-0.042
4.026,-0.039
4.028,-0.035
4.030,-0.028
4.032,-0.022
4.034,-0.018
4.036,-0.016
4.038,-0.018
4.040,-0.021
4.042,-0.025
4.044,-0.028
4.046,-0.029
4.048,-0.027
4.050,-0.024
4.052,-0.020
4.054,-0.017
4.056,-0.013
4.058,-0.011
4.060,-0.009
4.062,-0.008
4.064,-0.007
4.066,-0.006
4.068,-0.005
4.070,-0.003
4.072,-0.001
4.074,0.003
4.076,0.006
4.078,0.008
4.080,0.009
4.082,0.010
4.084,0.011
4.086,0.011
4.088,0.013
4.090,0.015
4.092,0.018
4.094,0.021
4.096,0.024
4.098,0.026
4.100,0.027
4.102,0.028
4.104,0.029
4.106,0.031
4.108,0.033
4.110,0.037
4.112,0.041
4.114,0.046
4.116,0.050
4.118,0.054
4.120,0.056
4.122,0.057
4.124,0.058
4.126,0.059
4.128,0.061
4.130,0.065
4.132,0.070
4.134,0.075
4.136,0.081
4.138,0.087
4.140,0.092
4.142,0.099
4.144,0.105
4.146,0.111
4.148,0.118
4.150,0.125
4.152,0.131
4.154,0.137
4.156,0.144
4.158,0.150
4.160,0.156
4.162,0.163
4.164,0.169
4.166,0.176
4.168,0.184
4.170,0.191
4.172,0.198
4.174,0.205
4.176,0.212
4.178,0.219
4.180,0.225
4.182,0.232
4.184,0.239
4.186,0.245
4.188,0.250
4.190,0.255
4.192,0.259
4.194,0.263
4.196,0.267
4.198,0.272
4.200,0.276
4.202,0.278
4.204,0.279
4.206,0.277
4.208,0.272
4.210,0.264
4.212,0.254
4.214,0.243
4.216,0.232
4.218,0.221
4.220,0.210
4.222,0.199
4.224,0.188
4.226,0.177
4.228,0.164
4.230,0.151
4.232,0.136
4.234,0.121
4.236,0.105
4.238,0.091
4.240,0.076
4.242,0.063
4.244,0.051
4.246,0.040
4.248,0.030
4.250,0.020
4.252,0.011
4.254,0.003
4.256,-0.005
4.258,-0.012
4.260,-0.019
4.262,-0.026
4.264,-0.031
4.266,-0.036
4.268,-0.040
4.270,-0.043
4.272,-0.045
4.274,-0.046
4.276,-0.046
4.278,-0.046
4.280,-0.047
4.282,-0.048
4.284,-0.050
4.286,-0.052
4.288,-0.054
4.290,-0.056
4.292,-0.058
4.294,-0.059
4.296,-0.060
4.298,-0.062
4.300,-0.063
4.302,-0.064
4.304,-0.065
4.306,-0.065
4.308,-0.064
4.310,-0.062
4.312,-0.061
4.314,-0.060
4.316,-0.059
4.318,-0.059
4.320,-0.059
4.322,-0.060
4.324,-0.061
4.326,-0.062
4.328,-0.063
4.330,-0.063
4.332,-0.063
4.334,-0.062
4.336,-0.062
4.338,-0.061
4.340,-0.061
4.342,-0.061
4.344,-0.060
4.346,-0.059
4.348,-0.057
4.350,-0.054
4.352,-0.053
4.354,-0.052
4.356,-0.052
4.358,-0.053
4.360,-0.054
4.362,-0.055
4.364,-0.055
4.366,-0.055
4.368,-0.054
4.370,-0.054
4.372,-0.053
4.374,-0.053
4.376,-0.051
4.378,-0.049
4.380,-0.047
4.382,-0.045
4.384,-0.045
4.386,-0.047
4.388,-0.050
4.390,-0.053
4.392,-0.056
4.394,-0.058
4.396,-0.058
4.398,-0.057
4.400,-0.056
4.402,-0.056
4.404,-0.055
4.406,-0.055
4.408,-0.054
4.410,-0.054
4.412,-0.054
4.414,-0.054
4.416,-0.055
4.418,-0.056
4.420,-0.056
4.422,-0.056
4.424,-0.056
4.426,-0.055
4.428,-0.054
4.430,-0.053
4.432,-0.052
4.434,-0.051
4.436,-0.051
4.438,-0.052
4.440,-0.053
4.442,-0.054
4.444,-0.056
4.446,-0.057
4.448,-0.057
4.450,-0.057
4.452,-0.055
4.454,-0.055
4.456,-0.054
4.458,-0.055
4.460,-0.057
4.462,-0.059
4.464,-0.060
4.466,-0.061
4.468,-0.060
4.470,-0.058
4.472,-0.056
4.474,-0.054
4.476,-0.052
4.478,-0.051
4.480,-0.049
4.482,-0.048
4.484,-0.047
4.486,-0.046
4.488,-0.045
4.490,-0.044
4.492,-0.044
4.494,-0.044
4.496,-0.042
4.498,-0.040
4.500,-0.036
4.502,-0.032
4.504,-0.029
4.506,-0.027
4.508,-0.026
4.510,-0.027
4.512,-0.027
4.514,-0.028
4.516,-0.027
4.518,-0.025
4.520,-0.020
4.522,-0.015
4.524,-0.008
4.526,-0.002
4.528,0.003
4.530,0.008
4.532,0.012
4.534,0.015
4.536,0.018
4.538,0.020
4.540,0.024
4.542,0.028
4.544,0.033
4.546,0.039
4.548,0.044
4.550,0.046
4.552,0.046
4.554,0.041
4.556,0.032
4.558,0.021
4.560,0.009
4.562,-0.004
4.564,-0.015
4.566,-0.025
4.568,-0.035
4.570,-0.044
4.572,-0.052
4.574,-0.059
4.576,-0.064
4.578,-0.067
4.580,-0.069
4.582,-0.071
4.584,-0.073
4.586,-0.076
4.588,-0.079
4.590,-0.082
4.592,-0.085
4.594,-0.086
4.596,-0.087
4.598,-0.086
4.600,-0.085
4.602,-0.082
4.604,-0.080
4.606,-0.078
4.608,-0.078
4.610,-0.080
4.612,-0.083
4.614,-0.087
4.616,-0.090
4.618,-0.091
4.620,-0.090
4.622,-0.085
4.624,-0.079
4.626,-0.074
4.628,-0.071
4.630,-0.072
4.632,-0.076
4.634,-0.083
4.636,-0.092
4.638,-0.102
4.640,-0.110
4.642,-0.117
4.644,-0.121
4.646,-0.121
4.648,-0.114
4.650,-0.097
4.652,-0.066
4.654,-0.019
4.656,0.047
4.658,0.132
4.660,0.233
4.662,0.343
4.664,0.453
4.666,0.553
4.668,0.635
4.670,0.689
4.672,0.710
4.674,0.691
4.676,0.629
4.678,0.524
4.680,0.380
4.682,0.208
4.684,0.026
4.686,-0.147
4.688,-0.293
4.690,-0.398
4.692,-0.458
4.694,-0.478
4.696,-0.468
4.698,-0.441
4.700,-0.406
4.702,-0.371
4.704,-0.340
4.706,-0.315
4.708,-0.296
4.710,-0.282
4.712,-0.272
4.714,-0.263
4.716,-0.253
4.718,-0.237
4.720,-0.214
4.722,-0.185
4.724,-0.152
4.726,-0.121
4.728,-0.095
4.730,-0.078
4.732,-0.069
4.734,-0.067
4.736,-0.069
4.738,-0.071
4.740,-0.071
4.742,-0.069
4.744,-0.066
4.746,-0.061
4.748,-0.056
4.750,-0.051
4.752,-0.047
4.754,-0.044
4.756,-0.043
4.758,-0.043
4.760,-0.044
4.762,-0.044
4.764,-0.045
4.766,-0.044
4.768,-0.041
4.770,-0.038
4.772,-0.035
4.774,-0.032
4.776,-0.029
4.778,-0.027
4.780,-0.024
4.782,-0.021
4.784,-0.018
4.786,-0.015
4.788,-0.013
4.790,-0.012
4.792,-0.013
4.794,-0.014
4.796,-0.015
4.798,-0.017
4.800,-0.017
4.802,-0.016
4.804,-0.012
4.806,-0.007
4.808,-0.001
4.810,0.003
4.812,0.006
4.814,0.005
4.816,0.002
4.818,-0.001
4.820,-0.004
4.822,-0.004
4.824,-0.002
4.826,0.002
4.828,0.007
4.830,0.012
4.832,0.015
4.834,0.018
4.836,0.021
4.838,0.023
4.840,0.026
4.842,0.029
4.844,0.032
4.846,0.034
4.848,0.036
4.850,0.037
4.852,0.038
4.854,0.040
4.856,0.043
4.858,0.048
4.860,0.053
4.862,0.059
4.864,0.065
4.866,0.070
4.868,0.075
4.870,0.079
4.872,0.083
4.874,0.086
4.876,0.090
4.878,0.095
4.880,0.101
4.882,0.108
4.884,0.115
4.886,0.123
4.888,0.131
4.890,0.140
4.892,0.148
4.894,0.156
4.896,0.165
4.898,0.173
4.900,0.180
4.902,0.186
4.904,0.191
4.906,0.196
4.908,0.201
4.910,0.208
4.912,0.217
4.914,0.227
4.916,0.238
4.918,0.248
4.920,0.256
4.922,0.263
4.924,0.268
4.926,0.271
4.928,0.274
4.930,0.277
4.932,0.279
4.934,0.280
4.936,0.281
4.938,0.282
4.940,0.281
4.942,0.279
4.944,0.274
4.946,0.267
4.948,0.258
4.950,0.247
4.952,0.235
4.954,0.223
4.956,0.210
4.958,0.197
4.960,0.184
4.962,0.170
4.964,0.157
4.966,0.145
4.968,0.133
4.970,0.121
4.972,0.107
4.974,0.091
4.976,0.073
4.978,0.055
4.980,0.036
4.982,0.020
4.984,0.007
4.986,-0.003
4.988,-0.010
4.990,-0.015
4.992,-0.020
4.994,-0.024
4.996,-0.028
4.998,-0.032
5.000,-0.036
5.002,-0.040
5.004,-0.044
5.006,-0.049
5.008,-0.053
5.010,-0.056
5.012,-0.057
5.014,-0.056
5.016,-0.053
5.018,-0.050
5.020,-0.049
5.022,-0.049
5.024,-0.052
5.026,-0.057
5.028,-0.061
5.030,-0.065
5.032,-0.068
5.034,-0.070
5.036,-0.072
5.038,-0.074
5.040,-0.073
5.042,-0.071
5.044,-0.066
5.046,-0.061
5.048,-0.057
5.050,-0.055
5.052,-0.057
5.054,-0.061
5.056,-0.066
5.058,-0.070
5.060,-0.071
5.062,-0.072
5.064,-0.071
5.066,-0.069
5.068,-0.068
5.070,-0.065
5.072,-0.061
5.074,-0.057
5.076,-0.052
5.078,-0.050
5.080,-0.050
5.082,-0.053
5.084,-0.058
5.086,-0.063
5.088,-0.066
5.090,-0.067
5.092,-0.066
5.094,-0.063
5.096,-0.059
5.098,-0.056
5.100,-0.054
5.102,-0.053
5.104,-0.053
5.106,-0.054
5.108,-0.055
5.110,-0.056
5.112,-0.055
5.114,-0.054
5.116,-0.053
5.118,-0.052
5.120,-0.051
5.122,-0.050
5.124,-0.050
5.126,-0.049
5.128,-0.050
5.130,-0.051
5.132,-0.053
5.134,-0.055
5.136,-0.057
5.138,-0.057
5.140,-0.055
5.142,-0.051
5.144,-0.045
5.146,-0.038
5.148,-0.033
5.150,-0.031
5.152,-0.034
5.154,-0.039
5.156,-0.046
5.158,-0.053
5.160,-0.058
5.162,-0.061
5.164,-0.062
5.166,-0.062
5.168,-0.062
5.170,-0.063
5.172,-0.064
5.174,-0.064
5.176,-0.065
5.178,-0.065
5.180,-0.066
5.182,-0.066
5.184,-0.065
5.186,-0.064
5.188,-0.062
5.190,-0.060
5.192,-0.057
5.194,-0.054
5.196,-0.052
5.198,-0.051
5.200,-0.050
5.202,-0.050
5.204,-0.050
5.206,-0.050
5.208,-0.051
5.210,-0.050
5.212,-0.049
5.214,-0.048
5.216,-0.045
5.218,-0.043
5.220,-0.041
5.222,-0.039
5.224,-0.038
5.226,-0.038
5.228,-0.038
5.230,-0.038
5.232,-0.037
5.234,-0.033
5.236,-0.026
5.238,-0.017
5.240,-0.008
5.242,-0.001
5.244,0.003
5.246,0.004
5.248,0.003
5.250,0.003
5.252,0.003
5.254,0.005
5.256,0.008
5.258,0.012
5.260,0.015
5.262,0.017
5.264,0.020
5.266,0.022
5.268,0.024
5.270,0.026
5.272,0.025
5.274,0.021
5.276,0.014
5.278,0.002
5.280,-0.011
5.282,-0.026
5.284,-0.039
5.286,-0.051
5.288,-0.060
5.290,-0.068
5.292,-0.073
5.294,-0.076
5.296,-0.078
5.298,-0.078
5.300,-0.078
5.302,-0.077
5.304,-0.077
5.306,-0.078
5.308,-0.080
5.310,-0.082
5.312,-0.083
5.314,-0.082
5.316,-0.080
5.318,-0.076
5.320,-0.071
5.322,-0.069
5.324,-0.069
5.326,-0.072
5.328,-0.079
5.330,-0.088
5.332,-0.096
5.334,-0.101
5.336,-0.101
5.338,-0.096
5.340,-0.089
5.342,-0.080
5.344,-0.074
5.346,-0.072
5.348,-0.074
5.350,-0.079
5.352,-0.088
5.354,-0.098
5.356,-0.108
5.358,-0.117
5.360,-0.121
5.362,-0.119
5.364,-0.106
5.366,-0.079
5.368,-0.037
5.370,0.022
5.372,0.099
5.374,0.190
5.376,0.293
5.378,0.401
5.380,0.504
5.382,0.595
5.384,0.664
5.386,0.703
5.388,0.706
5.390,0.668
5.392,0.587
5.394,0.464
5.396,0.308
5.398,0.132
5.400,-0.047
5.402,-0.208
5.404,-0.335
5.406,-0.419
5.408,-0.460
5.410,-0.465
5.412,-0.445
5.414,-0.412
5.416,-0.376
5.418,-0.342
5.420,-0.315
5.422,-0.294
5.424,-0.279
5.426,-0.268
5.428,-0.258
5.430,-0.246
5.432,-0.230
5.434,-0.208
5.436,-0.180
5.438,-0.150
5.440,-0.120
5.442,-0.095
5.444,-0.077
5.446,-0.067
5.448,-0.066
5.450,-0.069
5.452,-0.074
5.454,-0.077
5.456,-0.076
5.458,-0.071
5.460,-0.062
5.462,-0.053
5.464,-0.045
5.466,-0.039
5.468,-0.037
5.470,-0.037
5.472,-0.038
5.474,-0.039
5.476,-0.037
5.478,-0.034
5.480,-0.028
5.482,-0.021
5.484,-0.015
5.486,-0.012
5.488,-0.012
5.490,-0.017
5.492,-0.023
5.494,-0.029
5.496,-0.033
5.498,-0.035
5.500,-0.033
5.502,-0.030
5.504,-0.025
5.506,-0.021
5.508,-0.016
5.510,-0.012
5.512,-0.008
5.514,-0.003
5.516,0.001
5.518,0.004
5.520,0.005
5.522,0.005
5.524,0.002
5.526,-0.001
5.528,-0.003
5.530,-0.002
5.532,0.001
5.534,0.005
5.536,0.009
5.538,0.010
5.540,0.009
5.542,0.007
5.544,0.004
5.546,0.003
5.548,0.005
5.550,0.009
5.552,0.016
5.554,0.023
5.556,0.029
5.558,0.034
5.560,0.039
5.562,0.043
5.564,0.046
5.566,0.047
5.568,0.048
5.570,0.046
5.572,0.044
5.574,0.042
5.576,0.042
5.578,0.046
5.580,0.054
5.582,0.065
5.584,0.079
5.586,0.092
5.588,0.102
5.590,0.108
5.592,0.110
5.594,0.109
5.596,0.107
5.598,0.107
5.600,0.108
5.602,0.112
5.604,0.119
5.606,0.129
5.608,0.139
5.610,0.150
5.612,0.160
5.614,0.171
5.616,0.180
5.618,0.189
5.620,0.197
5.622,0.205
5.624,0.213
5.626,0.221
5.628,0.228
5.630,0.236
5.632,0.242
5.634,0.247
5.636,0.250
5.638,0.250
5.640,0.250
5.642,0.249
5.644,0.248
5.646,0.247
5.648,0.247
5.650,0.248
5.652,0.249
5.654,0.252
5.656,0.255
5.658,0.257
5.660,0.257
5.662,0.252
5.664,0.242
5.666,0.228
5.668,0.211
5.670,0.194
5.672,0.178
5.674,0.165
5.676,0.153
5.678,0.142
5.680,0.131
5.682,0.118
5.684,0.105
5.686,0.090
5.688,0.077
5.690,0.063
5.692,0.051
5.694,0.039
5.696,0.028
5.698,0.017
5.700,0.007
5.702,-0.003
5.704,-0.011
5.706,-0.017
5.708,-0.022
5.710,-0.025
5.712,-0.028
5.714,-0.030
5.716,-0.032
5.718,-0.034
5.720,-0.035
5.722,-0.035
5.724,-0.033
5.726,-0.031
5.728,-0.028
5.730,-0.026
5.732,-0.028
5.734,-0.033
5.736,-0.041
5.738,-0.052
5.740,-0.063
5.742,-0.071
5.744,-0.076
5.746,-0.076
5.748,-0.073
5.750,-0.068
5.752,-0.063
5.754,-0.058
5.756,-0.054
5.758,-0.050
5.760,-0.046
5.762,-0.043
5.764,-0.041
5.766,-0.042
5.768,-0.045
5.770,-0.051
5.772,-0.058
5.774,-0.064
5.776,-0.068
5.778,-0.068
5.780,-0.065
5.782,-0.062
5.784,-0.058
5.786,-0.055
5.788,-0.053
5.790,-0.051
5.792,-0.050
5.794,-0.048
5.796,-0.047
5.798,-0.046
5.800,-0.046
5.802,-0.048
5.804,-0.051
5.806,-0.054
5.808,-0.056
5.810,-0.058
5.812,-0.059
5.814,-0.059
5.816,-0.059
5.818,-0.058
5.820,-0.057
5.822,-0.057
5.824,-0.056
5.826,-0.055
5.828,-0.054
5.830,-0.053
5.832,-0.051
5.834,-0.050
5.836,-0.050
5.838,-0.051
5.840,-0.053
5.842,-0.055
5.844,-0.056
5.846,-0.057
5.848,-0.057
5.850,-0.056
5.852,-0.054
5.854,-0.051
5.856,-0.048
5.858,-0.043
5.860,-0.038
5.862,-0.035
5.864,-0.035
5.866,-0.037
5.868,-0.041
5.870,-0.044
5.872,-0.046
5.874,-0.046
5.876,-0.045
5.878,-0.044
5.880,-0.045
5.882,-0.047
5.884,-0.051
5.886,-0.054
5.888,-0.056
5.890,-0.057
5.892,-0.056
5.894,-0.054
5.896,-0.053
5.898,-0.053
5.900,-0.054
5.902,-0.056
5.904,-0.057
5.906,-0.057
5.908,-0.056
5.910,-0.055
5.912,-0.054
5.914,-0.053
5.916,-0.054
5.918,-0.054
5.920,-0.054
5.922,-0.054
5.924,-0.053
5.926,-0.053
5.928,-0.054
5.930,-0.055
5.932,-0.056
5.934,-0.057
5.936,-0.057
5.938,-0.056
5.940,-0.055
5.942,-0.055
5.944,-0.055
5.946,-0.056
5.948,-0.056
5.950,-0.057
5.952,-0.057
5.954,-0.056
5.956,-0.054
5.958,-0.051
5.960,-0.046
5.962,-0.039
5.964,-0.032
5.966,-0.025
5.968,-0.021
5.970,-0.019
5.972,-0.019
5.974,-0.022
5.976,-0.026
5.978,-0.030
5.980,-0.032
5.982,-0.031
5.984,-0.027
5.986,-0.019
5.988,-0.010
5.990,-0.000
5.992,0.008
5.994,0.012
5.996,0.014
5.998,0.014
6.000,0.014
6.002,0.015
6.004,0.018
6.006,0.022
6.008,0.028
6.010,0.034
6.012,0.039
6.014,0.042
6.016,0.043
6.018,0.042
6.020,0.039
6.022,0.034
6.024,0.026
6.026,0.015
6.028,0.003
6.030,-0.011
6.032,-0.024
6.034,-0.035
6.036,-0.044
6.038,-0.050
6.040,-0.055
6.042,-0.058
6.044,-0.059
6.046,-0.060
6.048,-0.059
6.050,-0.059
6.052,-0.060
6.054,-0.063
6.056,-0.067
6.058,-0.072
6.060,-0.076
6.062,-0.078
6.064,-0.077
6.066,-0.074
6.068,-0.069
6.070,-0.065
6.072,-0.062
6.074,-0.062
6.076,-0.065
6.078,-0.069
6.080,-0.074
6.082,-0.077
6.084,-0.078
6.086,-0.075
6.088,-0.071
6.090,-0.066
6.092,-0.063
6.094,-0.063
6.096,-0.068
6.098,-0.078
6.100,-0.089
6.102,-0.102
6.104,-0.113
6.106,-0.121
6.108,-0.122
6.110,-0.115
6.112,-0.098
6.114,-0.068
6.116,-0.023
6.118,0.040
6.120,0.119
6.122,0.214
6.124,0.320
6.126,0.429
6.128,0.532
6.130,0.620
6.132,0.686
6.134,0.724
6.136,0.726
6.138,0.687
6.140,0.606
6.142,0.482
6.144,0.324
6.146,0.144
6.148,-0.037
6.150,-0.200
6.152,-0.328
6.154,-0.413
6.156,-0.455
6.158,-0.462
6.160,-0.445
6.162,-0.417
6.164,-0.386
6.166,-0.357
6.168,-0.332
6.170,-0.310
6.172,-0.290
6.174,-0.272
6.176,-0.253
6.178,-0.234
6.180,-0.212
6.182,-0.187
6.184,-0.159
6.186,-0.130
6.188,-0.104
6.190,-0.083
6.192,-0.070
6.194,-0.065
6.196,-0.066
6.198,-0.070
6.200,-0.074
6.202,-0.074
6.204,-0.070
6.206,-0.063
6.208,-0.054
6.210,-0.046
6.212,-0.041
6.214,-0.038
6.216,-0.039
6.218,-0.041
6.220,-0.043
6.222,-0.042
6.224,-0.040
6.226,-0.036
6.228,-0.031
6.230,-0.027
6.232,-0.025
6.234,-0.024
6.236,-0.026
6.238,-0.028
6.240,-0.029
6.242,-0.029
6.244,-0.027
6.246,-0.023
6.248,-0.019
6.250,-0.016
6.252,-0.013
6.254,-0.013
6.256,-0.014
6.258,-0.016
6.260,-0.017
6.262,-0.017
6.264,-0.016
6.266,-0.013
6.268,-0.010
6.270,-0.008
6.272,-0.005
6.274,-0.004
6.276,-0.003
6.278,-0.002
6.280,-0.002
6.282,-0.002
6.284,-0.001
6.286,0.000
6.288,0.003
6.290,0.007
6.292,0.011
6.294,0.015
6.296,0.017
6.298,0.019
6.300,0.020
6.302,0.020
6.304,0.022
6.306,0.024
6.308,0.028
6.310,0.032
6.312,0.036
6.314,0.039
6.316,0.042
6.318,0.043
6.320,0.045
6.322,0.047
6.324,0.050
6.326,0.054
6.328,0.059
6.330,0.064
6.332,0.070
6.334,0.075
6.336,0.080
6.338,0.085
6.340,0.090
6.342,0.095
6.344,0.100
6.346,0.106
6.348,0.112
6.350,0.118
6.352,0.126
6.354,0.133
6.356,0.141
6.358,0.150
6.360,0.158
6.362,0.166
6.364,0.173
6.366,0.179
6.368,0.185
6.370,0.191
6.372,0.197
6.374,0.204
6.376,0.212
6.378,0.220
6.380,0.227
6.382,0.233
6.384,0.237
6.386,0.240
6.388,0.241
6.390,0.243
6.392,0.245
6.394,0.248
6.396,0.252
6.398,0.255
6.400,0.258
6.402,0.259
6.404,0.259
6.406,0.255
6.408,0.249
6.410,0.241
6.412,0.231
6.414,0.220
6.416,0.209
6.418,0.199
6.420,0.189
6.422,0.178
6.424,0.165
6.426,0.151
6.428,0.136
6.430,0.119
6.432,0.103
6.434,0.087
6.436,0.072
6.438,0.060
6.440,0.049
6.442,0.039
6.444,0.031
6.446,0.024
6.448,0.018
6.450,0.013
6.452,0.008
6.454,0.001
6.456,-0.008
6.458,-0.018
6.460,-0.028
6.462,-0.037
6.464,-0.044
6.466,-0.049
6.468,-0.051
6.470,-0.050
6.472,-0.048
6.474,-0.046
6.476,-0.045
6.478,-0.045
6.480,-0.047
6.482,-0.050
6.484,-0.053
6.486,-0.055
6.488,-0.057
6.490,-0.056
6.492,-0.055
6.494,-0.053
6.496,-0.051
6.498,-0.050
6.500,-0.049
6.502,-0.048
6.504,-0.047
6.506,-0.047
6.508,-0.048
6.510,-0.050
6.512,-0.053
6.514,-0.056
6.516,-0.060
6.518,-0.062
6.520,-0.063
6.522,-0.061
6.524,-0.059
6.526,-0.056
6.528,-0.053
6.530,-0.051
6.532,-0.050
6.534,-0.049
6.536,-0.049
6.538,-0.050
6.540,-0.051
6.542,-0.051
6.544,-0.052
6.546,-0.052
6.548,-0.052
6.550,-0.052
6.552,-0.052
6.554,-0.051
6.556,-0.050
6.558,-0.049
6.560,-0.047
6.562,-0.046
6.564,-0.045
6.566,-0.046
6.568,-0.047
6.570,-0.049
6.572,-0.050
6.574,-0.052
6.576,-0.052
6.578,-0.052
6.580,-0.051
6.582,-0.050
6.584,-0.049
6.586,-0.049
6.588,-0.048
6.590,-0.048
6.592,-0.048
6.594,-0.047
6.596,-0.047
6.598,-0.047
6.600,-0.046
6.602,-0.046
6.604,-0.045
6.606,-0.044
6.608,-0.044
6.610,-0.045
6.612,-0.046
6.614,-0.047
6.616,-0.047
6.618,-0.048
6.620,-0.048
6.622,-0.049
6.624,-0.049
6.626,-0.050
6.628,-0.051
6.630,-0.052
6.632,-0.052
6.634,-0.051
6.636,-0.051
6.638,-0.051
6.640,-0.052
6.642,-0.053
6.644,-0.054
6.646,-0.055
6.648,-0.055
6.650,-0.054
6.652,-0.052
6.654,-0.051
6.656,-0.050
6.658,-0.051
6.660,-0.053
6.662,-0.056
6.664,-0.058
6.666,-0.061
6.668,-0.062
6.670,-0.061
6.672,-0.059
6.674,-0.056
6.676,-0.053
6.678,-0.051
6.680,-0.050
6.682,-0.051
6.684,-0.053
6.686,-0.056
6.688,-0.059
6.690,-0.061
6.692,-0.061
6.694,-0.060
6.696,-0.058
6.698,-0.055
6.700,-0.052
6.702,-0.050
6.704,-0.050
6.706,-0.052
6.708,-0.054
6.710,-0.056
6.712,-0.056
6.714,-0.055
6.716,-0.053
6.718,-0.049
6.720,-0.044
6.722,-0.040
6.724,-0.036
6.726,-0.032
6.728,-0.029
6.730,-0.027
6.732,-0.025
6.734,-0.025
6.736,-0.024
6.738,-0.023
6.740,-0.022
6.742,-0.018
6.744,-0.014
6.746,-0.008
6.748,-0.001
6.750,0.005
6.752,0.011
6.754,0.014
6.756,0.016
6.758,0.018
6.760,0.020
6.762,0.024
6.764,0.030
6.766,0.038
6.768,0.046
6.770,0.052
6.772,0.055
6.774,0.053
6.776,0.048
6.778,0.040
6.780,0.031
6.782,0.023
6.784,0.015
6.786,0.006
6.788,-0.004
6.790,-0.016
6.792,-0.031
6.794,-0.045
6.796,-0.058
6.798,-0.067
6.800,-0.072
6.802,-0.073
6.804,-0.071
6.806,-0.069
6.808,-0.068
6.810,-0.068
6.812,-0.070
6.814,-0.073
6.816,-0.077
6.818,-0.081
6.820,-0.082
6.822,-0.081
6.824,-0.078
6.826,-0.072
6.828,-0.067
6.830,-0.064
6.832,-0.064
6.834,-0.069
6.836,-0.075
6.838,-0.083
6.840,-0.088
6.842,-0.089
6.844,-0.087
6.846,-0.082
6.848,-0.076
6.850,-0.070
6.852,-0.067
6.854,-0.068
6.856,-0.073
6.858,-0.081
6.860,-0.093
6.862,-0.105
6.864,-0.116
6.866,-0.122
6.868,-0.121
6.870,-0.110
6.872,-0.087
6.874,-0.049
6.876,0.005
6.878,0.078
6.880,0.167
6.882,0.270
6.884,0.379
6.886,0.487
6.888,0.584
6.890,0.662
6.892,0.714
6.894,0.733
6.896,0.714
6.898,0.651
6.900,0.544
6.902,0.396
6.904,0.219
6.906,0.031
6.908,-0.147
6.910,-0.295
6.912,-0.401
6.914,-0.460
6.916,-0.480
6.918,-0.470
6.920,-0.444
6.922,-0.411
6.924,-0.378
6.926,-0.349
6.928,-0.324
6.930,-0.303
6.932,-0.284
6.934,-0.267
6.936,-0.249
6.938,-0.229
6.940,-0.204
6.942,-0.175
6.944,-0.144
6.946,-0.114
6.948,-0.089
6.950,-0.070
6.952,-0.058
6.954,-0.053
6.956,-0.053
6.958,-0.056
6.960,-0.059
6.962,-0.060
6.964,-0.058
6.966,-0.054
6.968,-0.047
6.970,-0.041
6.972,-0.037
6.974,-0.035
6.976,-0.036
6.978,-0.039
6.980,-0.040
6.982,-0.039
6.984,-0.035
6.986,-0.029
6.988,-0.022
6.990,-0.016
6.992,-0.013
6.994,-0.013
6.996,-0.015
6.998,-0.017
7.000,-0.019
7.002,-0.019
7.004,-0.017
7.006,-0.014
7.008,-0.010
7.010,-0.006
7.012,-0.004
7.014,-0.003
7.016,-0.003
7.018,-0.004
7.020,-0.005
7.022,-0.005
7.024,-0.003
7.026,0.000
7.028,0.003
7.030,0.007
7.032,0.009
7.034,0.009
7.036,0.010
7.038,0.010
7.040,0.011
7.042,0.014
7.044,0.017
7.046,0.020
7.048,0.023
7.050,0.025
7.052,0.026
7.054,0.027
7.056,0.028
7.058,0.030
7.060,0.033
7.062,0.035
7.064,0.038
7.066,0.041
7.068,0.045
7.070,0.048
7.072,0.051
7.074,0.053
7.076,0.054
7.078,0.055
7.080,0.056
7.082,0.057
7.084,0.059
7.086,0.063
7.088,0.067
7.090,0.072
7.092,0.079
7.094,0.086
7.096,0.094
7.098,0.103
7.100,0.111
7.102,0.119
7.104,0.125
7.106,0.130
7.108,0.134
7.110,0.138
7.112,0.142
7.114,0.147
7.116,0.152
7.118,0.159
7.120,0.167
7.122,0.175
7.124,0.184
7.126,0.193
7.128,0.201
7.130,0.209
7.132,0.216
7.134,0.224
7.136,0.231
7.138,0.237
7.140,0.243
7.142,0.248
7.144,0.253
7.146,0.257
7.148,0.260
7.150,0.264
7.152,0.268
7.154,0.272
7.156,0.275
7.158,0.277
7.160,0.277
7.162,0.276
7.164,0.273
7.166,0.268
7.168,0.262
7.170,0.255
7.172,0.246
7.174,0.236
7.176,0.224
7.178,0.210
7.180,0.194
7.182,0.178
7.184,0.161
7.186,0.146
7.188,0.131
7.190,0.117
7.192,0.104
7.194,0.090
7.196,0.077
7.198,0.065
7.200,0.053
7.202,0.042
7.204,0.032
7.206,0.023
7.208,0.014
7.210,0.005
7.212,-0.003
7.214,-0.012
7.216,-0.020
7.218,-0.026
7.220,-0.031
7.222,-0.035
7.224,-0.038
7.226,-0.041
7.228,-0.043
7.230,-0.045
7.232,-0.046
7.234,-0.047
7.236,-0.048
7.238,-0.049
7.240,-0.051
7.242,-0.052
7.244,-0.054
7.246,-0.055
7.248,-0.056
7.250,-0.057
7.252,-0.058
7.254,-0.058
7.256,-0.059
7.258,-0.060
7.260,-0.061
7.262,-0.062
7.264,-0.064
7.266,-0.065
7.268,-0.066
7.270,-0.068
7.272,-0.068
7.274,-0.068
7.276,-0.067
7.278,-0.066
7.280,-0.065
7.282,-0.064
7.284,-0.063
7.286,-0.063
7.288,-0.062
7.290,-0.061
7.292,-0.060
7.294,-0.059
7.296,-0.058
7.298,-0.057
7.300,-0.057
7.302,-0.058
7.304,-0.058
7.306,-0.059
7.308,-0.060
7.310,-0.060
7.312,-0.061
7.314,-0.060
7.316,-0.060
7.318,-0.058
7.320,-0.056
7.322,-0.055
7.324,-0.053
7.326,-0.052
7.328,-0.052
7.330,-0.052
7.332,-0.052
7.334,-0.053
7.336,-0.053
7.338,-0.053
7.340,-0.053
7.342,-0.052
7.344,-0.052
7.346,-0.052
7.348,-0.053
7.350,-0.054
7.352,-0.056
7.354,-0.058
7.356,-0.059
7.358,-0.060
7.360,-0.059
7.362,-0.058
7.364,-0.057
7.366,-0.054
7.368,-0.052
7.370,-0.051
7.372,-0.050
7.374,-0.050
7.376,-0.051
7.378,-0.053
7.380,-0.054
7.382,-0.056
7.384,-0.058
7.386,-0.059
7.388,-0.059
7.390,-0.059
7.392,-0.058
7.394,-0.057
7.396,-0.056
7.398,-0.055
7.400,-0.054
7.402,-0.054
7.404,-0.054
7.406,-0.054
7.408,-0.054
7.410,-0.055
7.412,-0.055
7.414,-0.055
7.416,-0.056
7.418,-0.056
7.420,-0.056
7.422,-0.056
7.424,-0.056
7.426,-0.057
7.428,-0.058
7.430,-0.059
7.432,-0.061
7.434,-0.062
7.436,-0.063
7.438,-0.063
7.440,-0.061
7.442,-0.059
7.444,-0.057
7.446,-0.054
7.448,-0.051
7.450,-0.049
7.452,-0.049
7.454,-0.049
7.456,-0.051
7.458,-0.052
7.460,-0.052
7.462,-0.051
7.464,-0.048
7.466,-0.045
7.468,-0.041
7.470,-0.038
7.472,-0.035
7.474,-0.033
7.476,-0.031
7.478,-0.029
7.480,-0.028
7.482,-0.027
7.484,-0.025
7.486,-0.023
7.488,-0.020
7.490,-0.015
7.492,-0.010
7.494,-0.003
7.496,0.004
7.498,0.010
7.500,0.014
7.502,0.016
7.504,0.017
7.506,0.017
7.508,0.018
7.510,0.022
7.512,0.027
7.514,0.034
7.516,0.040
7.518,0.043
7.520,0.044
7.522,0.041
7.524,0.036
7.526,0.029
7.528,0.021
7.530,0.012
7.532,0.001
7.534,-0.010
7.536,-0.023
7.538,-0.035
7.540,-0.047
7.542,-0.057
7.544,-0.064
7.546,-0.069
7.548,-0.070
7.550,-0.071
7.552,-0.070
7.554,-0.070
7.556,-0.071
7.558,-0.072
7.560,-0.075
7.562,-0.078
7.564,-0.080
7.566,-0.081
7.568,-0.080
7.570,-0.077
7.572,-0.072
7.574,-0.068
7.576,-0.065
7.578,-0.065
7.580,-0.068
7.582,-0.075
7.584,-0.082
7.586,-0.088
7.588,-0.091
7.590,-0.091
7.592,-0.087
7.594,-0.081
7.596,-0.077
7.598,-0.075
7.600,-0.077
7.602,-0.082
7.604,-0.089
7.606,-0.097
7.608,-0.105
7.610,-0.111
7.612,-0.114
7.614,-0.113
7.616,-0.105
7.618,-0.088
7.620,-0.059
7.622,-0.014
7.624,0.049
7.626,0.130
7.628,0.227
7.630,0.333
7.632,0.441
7.634,0.543
7.636,0.629
7.638,0.691
7.640,0.720
7.642,0.710
7.644,0.655
7.646,0.554
7.648,0.411
7.650,0.236
7.652,0.048
7.654,-0.133
7.656,-0.286
7.658,-0.397
7.660,-0.462
7.662,-0.484
7.664,-0.473
7.666,-0.444
7.668,-0.408
7.670,-0.374
7.672,-0.345
7.674,-0.322
7.676,-0.305
7.678,-0.292
7.680,-0.280
7.682,-0.268
7.684,-0.253
7.686,-0.234
7.688,-0.208
7.690,-0.178
7.692,-0.145
7.694,-0.114
7.696,-0.089
7.698,-0.073
7.700,-0.065
7.702,-0.065
7.704,-0.067
7.706,-0.070
7.708,-0.069
7.710,-0.065
7.712,-0.059
7.714,-0.051
7.716,-0.045
7.718,-0.041
7.720,-0.040
7.722,-0.041
7.724,-0.042
7.726,-0.042
7.728,-0.041
7.730,-0.039
7.732,-0.036
7.734,-0.032
7.736,-0.030
7.738,-0.028
7.740,-0.027
7.742,-0.026
7.744,-0.026
7.746,-0.025
7.748,-0.023
7.750,-0.020
7.752,-0.016
7.754,-0.012
7.756,-0.008
7.758,-0.006
7.760,-0.005
7.762,-0.007
7.764,-0.010
7.766,-0.012
7.768,-0.014
7.770,-0.014
7.772,-0.012
7.774,-0.009
7.776,-0.005
7.778,-0.002
7.780,0.001
7.782,0.002
7.784,0.004
7.786,0.006
7.788,0.008
7.790,0.012
7.792,0.015
7.794,0.019
7.796,0.022
7.798,0.024
7.800,0.026
7.802,0.027
7.804,0.029
7.806,0.031
7.808,0.033
7.810,0.036
7.812,0.039
7.814,0.041
7.816,0.043
7.818,0.045
7.820,0.047
7.822,0.049
7.824,0.052
7.826,0.056
7.828,0.062
7.830,0.068
7.832,0.074
7.834,0.080
7.836,0.085
7.838,0.091
7.840,0.096
7.842,0.101
7.844,0.105
7.846,0.110
7.848,0.114
7.850,0.119
7.852,0.124
7.854,0.130
7.856,0.136
7.858,0.143
7.860,0.150
7.862,0.157
7.864,0.165
7.866,0.172
7.868,0.180
7.870,0.187
7.872,0.195
7.874,0.202
7.876,0.210
7.878,0.218
7.880,0.225
7.882,0.231
7.884,0.237
7.886,0.241
7.888,0.245
7.890,0.249
7.892,0.252
7.894,0.257
7.896,0.261
7.898,0.266
7.900,0.271
7.902,0.275
7.904,0.277
7.906,0.277
7.908,0.276
7.910,0.272
7.912,0.267
7.914,0.260
7.916,0.252
7.918,0.244
7.920,0.234
7.922,0.224
7.924,0.213
7.926,0.202
7.928,0.189
7.930,0.176
7.932,0.161
7.934,0.146
7.936,0.130
7.938,0.114
7.940,0.099
7.942,0.085
7.944,0.072
7.946,0.060
7.948,0.048
7.950,0.037
7.952,0.027
7.954,0.017
7.956,0.009
7.958,0.001
7.960,-0.006
7.962,-0.013
7.964,-0.019
7.966,-0.025
7.968,-0.030
7.970,-0.034
7.972,-0.037
7.974,-0.039
7.976,-0.042
7.978,-0.044
7.980,-0.047
7.982,-0.049
7.984,-0.050
7.986,-0.052
7.988,-0.052
7.990,-0.053
7.992,-0.053
7.994,-0.054
7.996,-0.055
7.998,-0.057
8.000,-0.059
8.002,-0.061
8.004,-0.063
8.006,-0.065
8.008,-0.066
8.010,-0.066
8.012,-0.067
8.014,-0.067
8.016,-0.067
8.018,-0.066
8.020,-0.066
8.022,-0.065
8.024,-0.065
8.026,-0.064
8.028,-0.063
8.030,-0.063
8.032,-0.062
8.034,-0.063
8.036,-0.063
8.038,-0.064
8.040,-0.065
8.042,-0.065
8.044,-0.065
8.046,-0.064
8.048,-0.063
8.050,-0.062
8.052,-0.063
8.054,-0.063
8.056,-0.064
8.058,-0.064
8.060,-0.063
8.062,-0.062
8.064,-0.060
8.066,-0.058
8.068,-0.056
8.070,-0.055
8.072,-0.055
8.074,-0.056
8.076,-0.057
8.078,-0.058
8.080,-0.059
8.082,-0.059
8.084,-0.060
8.086,-0.060
8.088,-0.061
8.090,-0.060
8.092,-0.059
8.094,-0.057
8.096,-0.055
8.098,-0.054
8.100,-0.054
8.102,-0.055
8.104,-0.058
8.106,-0.060
8.108,-0.063
8.110,-0.063
8.112,-0.063
8.114,-0.061
8.116,-0.058
8.118,-0.056
8.120,-0.055
8.122,-0.055
8.124,-0.055
8.126,-0.057
8.128,-0.059
8.130,-0.061
8.132,-0.062
8.134,-0.062
8.136,-0.061
8.138,-0.060
8.140,-0.059
8.142,-0.058
8.144,-0.058
8.146,-0.058
8.148,-0.058
8.150,-0.058
8.152,-0.058
8.154,-0.057
8.156,-0.055
8.158,-0.051
8.160,-0.046
8.162,-0.040
8.164,-0.034
8.166,-0.030
8.168,-0.027
8.170,-0.028
8.172,-0.030
8.174,-0.035
8.176,-0.040
8.178,-0.044
8.180,-0.047
8.182,-0.048
8.184,-0.046
8.186,-0.041
8.188,-0.033
8.190,-0.024
8.192,-0.015
8.194,-0.006
8.196,0.000
8.198,0.005
8.200,0.008
8.202,0.009
8.204,0.011
8.206,0.012
8.208,0.013
8.210,0.014
8.212,0.014
8.214,0.014
8.216,0.013
8.218,0.012
8.220,0.008
8.222,0.003
8.224,-0.004
8.226,-0.012
8.228,-0.023
8.230,-0.033
8.232,-0.045
8.234,-0.055
8.236,-0.064
8.238,-0.072
8.240,-0.076
8.242,-0.078
8.244,-0.078
8.246,-0.076
8.248,-0.074
8.250,-0.074
8.252,-0.076
8.254,-0.080
8.256,-0.085
8.258,-0.089
8.260,-0.091
8.262,-0.091
8.264,-0.088
8.266,-0.084
8.268,-0.080
8.270,-0.078
8.272,-0.080
8.274,-0.083
8.276,-0.088
8.278,-0.092
8.280,-0.093
8.282,-0.091
8.284,-0.086
8.286,-0.080
8.288,-0.075
8.290,-0.072
8.292,-0.071
8.294,-0.073
8.296,-0.079
8.298,-0.087
8.300,-0.099
8.302,-0.111
8.304,-0.121
8.306,-0.127
8.308,-0.125
8.310,-0.113
8.312,-0.089
8.314,-0.050
8.316,0.005
8.318,0.076
8.320,0.163
8.322,0.263
8.324,0.371
8.326,0.477
8.328,0.574
8.330,0.650
8.332,0.698
8.334,0.711
8.336,0.682
8.338,0.609
8.340,0.493
8.342,0.341
8.344,0.166
8.346,-0.014
8.348,-0.179
8.350,-0.313
8.352,-0.403
8.354,-0.450
8.356,-0.459
8.358,-0.442
8.360,-0.410
8.362,-0.376
8.364,-0.344
8.366,-0.317
8.368,-0.298
8.370,-0.283
8.372,-0.272
8.374,-0.263
8.376,-0.252
8.378,-0.238
8.380,-0.218
8.382,-0.193
8.384,-0.163
8.386,-0.132
8.388,-0.104
8.390,-0.083
8.392,-0.069
8.394,-0.064
8.396,-0.064
8.398,-0.066
8.400,-0.067
8.402,-0.065
8.404,-0.061
8.406,-0.056
8.408,-0.051
8.410,-0.048
8.412,-0.048
8.414,-0.049
8.416,-0.051
8.418,-0.052
8.420,-0.051
8.422,-0.047
8.424,-0.041
8.426,-0.035
8.428,-0.030
8.430,-0.027
8.432,-0.027
8.434,-0.028
8.436,-0.030
8.438,-0.031
8.440,-0.030
8.442,-0.027
8.444,-0.022
8.446,-0.017
8.448,-0.013
8.450,-0.010
8.452,-0.008
8.454,-0.008
8.456,-0.010
8.458,-0.011
8.460,-0.013
8.462,-0.014
8.464,-0.014
8.466,-0.014
8.468,-0.012
8.470,-0.010
8.472,-0.007
8.474,-0.004
8.476,-0.002
8.478,0.000
8.480,0.001
8.482,0.002
8.484,0.004
8.486,0.006
8.488,0.008
8.490,0.011
8.492,0.014
8.494,0.016
8.496,0.018
8.498,0.020
8.500,0.022
8.502,0.024
8.504,0.026
8.506,0.029
8.508,0.033
8.510,0.037
8.512,0.041
8.514,0.046
8.516,0.050
8.518,0.054
8.520,0.058
8.522,0.060
8.524,0.062
8.526,0.065
8.528,0.067
8.530,0.071
8.532,0.077
8.534,0.082
8.536,0.088
8.538,0.094
8.540,0.100
8.542,0.107
8.544,0.114
8.546,0.122
8.548,0.130
8.550,0.139
8.552,0.148
8.554,0.156
8.556,0.164
8.558,0.171
8.560,0.178
8.562,0.185
8.564,0.191
8.566,0.197
8.568,0.203
8.570,0.208
8.572,0.213
8.574,0.217
8.576,0.223
8.578,0.228
8.580,0.235
8.582,0.241
8.584,0.248
8.586,0.254
8.588,0.260
8.590,0.265
8.592,0.268
8.594,0.269
8.596,0.268
8.598,0.265
8.600,0.261
8.602,0.256
8.604,0.250
8.606,0.244
8.608,0.237
8.610,0.230
8.612,0.220
8.614,0.210
8.616,0.198
8.618,0.185
8.620,0.171
8.622,0.155
8.624,0.139
8.626,0.123
8.628,0.108
8.630,0.093
8.632,0.080
8.634,0.068
8.636,0.057
8.638,0.047
8.640,0.038
8.642,0.028
8.644,0.019
8.646,0.009
8.648,-0.000
8.650,-0.009
8.652,-0.017
8.654,-0.024
8.656,-0.028
8.658,-0.032
8.660,-0.034
8.662,-0.036
8.664,-0.038
8.666,-0.041
8.668,-0.045
8.670,-0.048
8.672,-0.052
8.674,-0.055
8.676,-0.057
8.678,-0.059
8.680,-0.059
8.682,-0.060
8.684,-0.060
8.686,-0.060
8.688,-0.060
8.690,-0.060
8.692,-0.060
8.694,-0.061
8.696,-0.063
8.698,-0.065
8.700,-0.067
8.702,-0.070
8.704,-0.071
8.706,-0.072
8.708,-0.072
8.710,-0.072
8.712,-0.070
8.714,-0.069
8.716,-0.068
8.718,-0.067
8.720,-0.066
8.722,-0.066
8.724,-0.067
8.726,-0.067
8.728,-0.068
8.730,-0.068
8.732,-0.069
8.734,-0.068
8.736,-0.068
8.738,-0.067
8.740,-0.066
8.742,-0.065
8.744,-0.065
8.746,-0.066
8.748,-0.067
8.750,-0.069
8.752,-0.070
8.754,-0.070
8.756,-0.070
8.758,-0.069
8.760,-0.067
8.762,-0.066
8.764,-0.065
8.766,-0.065
8.768,-0.065
8.770,-0.064
8.772,-0.064
8.774,-0.063
8.776,-0.063
8.778,-0.064
8.780,-0.065
8.782,-0.066
8.784,-0.066
8.786,-0.065
8.788,-0.063
8.790,-0.059
8.792,-0.056
8.794,-0.054
8.796,-0.053
8.798,-0.053
8.800,-0.053
8.802,-0.053
8.804,-0.053
8.806,-0.053
8.808,-0.053
8.810,-0.053
8.812,-0.054
8.814,-0.055
8.816,-0.056
8.818,-0.057
8.820,-0.056
8.822,-0.055
8.824,-0.053
8.826,-0.052
8.828,-0.052
8.830,-0.052
8.832,-0.054
8.834,-0.056
8.836,-0.058
8.838,-0.060
8.840,-0.061
8.842,-0.061
8.844,-0.061
8.846,-0.061
8.848,-0.060
8.850,-0.059
8.852,-0.059
8.854,-0.058
8.856,-0.058
8.858,-0.058
8.860,-0.059
8.862,-0.059
8.864,-0.059
8.866,-0.059
8.868,-0.058
8.870,-0.057
8.872,-0.055
8.874,-0.053
8.876,-0.052
8.878,-0.051
8.880,-0.050
8.882,-0.049
8.884,-0.048
8.886,-0.047
8.888,-0.046
8.890,-0.044
8.892,-0.043
8.894,-0.041
8.896,-0.039
8.898,-0.037
8.900,-0.036
8.902,-0.036
8.904,-0.035
8.906,-0.035
8.908,-0.035
8.910,-0.033
8.912,-0.030
8.914,-0.025
8.916,-0.019
8.918,-0.012
8.920,-0.006
8.922,-0.001
8.924,0.003
8.926,0.007
8.928,0.012
8.930,0.017
8.932,0.022
8.934,0.028
8.936,0.032
8.938,0.035
8.940,0.035
8.942,0.033
8.944,0.028
8.946,0.023
8.948,0.016
8.950,0.008
8.952,-0.001
8.954,-0.011
8.956,-0.022
8.958,-0.033
8.960,-0.044
8.962,-0.053
8.964,-0.059
8.966,-0.061
8.968,-0.061
8.970,-0.061
8.972,-0.061
8.974,-0.062
8.976,-0.066
8.978,-0.072
8.980,-0.078
8.982,-0.082
8.984,-0.085
8.986,-0.084
8.988,-0.081
8.990,-0.077
8.992,-0.071
8.994,-0.067
8.996,-0.065
8.998,-0.066
9.000,-0.070
9.002,-0.076
9.004,-0.082
9.006,-0.085
9.008,-0.085
9.010,-0.081
9.012,-0.075
9.014,-0.067
9.016,-0.061
9.018,-0.059
9.020,-0.062
9.022,-0.070
9.024,-0.083
9.026,-0.097
9.028,-0.111
9.030,-0.122
9.032,-0.127
9.034,-0.122
9.036,-0.107
9.038,-0.078
9.040,-0.034
9.042,0.027
9.044,0.104
9.046,0.196
9.048,0.299
9.050,0.405
9.052,0.509
9.054,0.600
9.056,0.670
9.058,0.714
9.060,0.725
9.062,0.697
9.064,0.627
9.066,0.515
9.068,0.366
9.070,0.193
9.072,0.012
9.074,-0.156
9.076,-0.294
9.078,-0.390
9.080,-0.443
9.082,-0.458
9.084,-0.445
9.086,-0.417
9.088,-0.384
9.090,-0.353
9.092,-0.326
9.094,-0.304
9.096,-0.286
9.098,-0.271
9.100,-0.255
9.102,-0.238
9.104,-0.217
9.106,-0.192
9.108,-0.164
9.110,-0.134
9.112,-0.106
9.114,-0.081
9.116,-0.063
9.118,-0.054
9.120,-0.051
9.122,-0.054
9.124,-0.059
9.126,-0.063
9.128,-0.063
9.130,-0.060
9.132,-0.055
9.134,-0.047
9.136,-0.041
9.138,-0.036
9.140,-0.034
9.142,-0.034
9.144,-0.035
9.146,-0.035
9.148,-0.034
9.150,-0.032
9.152,-0.028
9.154,-0.024
9.156,-0.022
9.158,-0.020
9.160,-0.020
9.162,-0.021
9.164,-0.023
9.166,-0.024
9.168,-0.024
9.170,-0.021
9.172,-0.018
9.174,-0.013
9.176,-0.010
9.178,-0.009
9.180,-0.009
9.182,-0.012
9.184,-0.014
9.186,-0.016
9.188,-0.015
9.190,-0.012
9.192,-0.007
9.194,-0.002
9.196,0.002
9.198,0.003
9.200,0.002
9.202,-0.001
9.204,-0.004
9.206,-0.006
9.208,-0.006
9.210,-0.004
9.212,-0.000
9.214,0.004
9.216,0.008
9.218,0.012
9.220,0.016
9.222,0.019
9.224,0.022
9.226,0.025
9.228,0.028
9.230,0.030
9.232,0.032
9.234,0.033
9.236,0.035
9.238,0.037
9.240,0.039
9.242,0.043
9.244,0.048
9.246,0.053
9.248,0.059
9.250,0.064
9.252,0.068
9.254,0.072
9.256,0.076
9.258,0.079
9.260,0.082
9.262,0.086
9.264,0.090
9.266,0.094
9.268,0.100
9.270,0.105
9.272,0.112
9.274,0.119
9.276,0.126
9.278,0.134
9.280,0.142
9.282,0.150
9.284,0.157
9.286,0.164
9.288,0.169
9.290,0.174
9.292,0.179
9.294,0.185
9.296,0.191
9.298,0.199
9.300,0.207
9.302,0.216
9.304,0.224
9.306,0.231
9.308,0.238
9.310,0.243
9.312,0.246
9.314,0.248
9.316,0.250
9.318,0.250
9.320,0.251
9.322,0.252
9.324,0.253
9.326,0.254
9.328,0.254
9.330,0.252
9.332,0.248
9.334,0.240
9.336,0.230
9.338,0.218
9.340,0.205
9.342,0.191
9.344,0.177
9.346,0.164
9.348,0.150
9.350,0.137
9.352,0.124
9.354,0.112
9.356,0.099
9.358,0.087
9.360,0.075
9.362,0.062
9.364,0.050
9.366,0.038
9.368,0.028
9.370,0.019
9.372,0.012
9.374,0.006
9.376,0.002
9.378,-0.002
9.380,-0.007
9.382,-0.014
9.384,-0.022
9.386,-0.031
9.388,-0.041
9.390,-0.049
9.392,-0.056
9.394,-0.059
9.396,-0.060
9.398,-0.059
9.400,-0.058
9.402,-0.055
9.404,-0.054
9.406,-0.053
9.408,-0.052
9.410,-0.053
9.412,-0.055
9.414,-0.057
9.416,-0.059
9.418,-0.061
9.420,-0.062
9.422,-0.064
9.424,-0.065
9.426,-0.067
9.428,-0.067
9.430,-0.067
9.432,-0.065
9.434,-0.062
9.436,-0.059
9.438,-0.057
9.440,-0.056
9.442,-0.056
9.444,-0.056
9.446,-0.056
9.448,-0.055
9.450,-0.053
9.452,-0.051
9.454,-0.051
9.456,-0.051
9.458,-0.052
9.460,-0.053
9.462,-0.054
9.464,-0.054
9.466,-0.053
9.468,-0.053
9.470,-0.053
9.472,-0.054
9.474,-0.055
9.476,-0.056
9.478,-0.056
9.480,-0.055
9.482,-0.054
9.484,-0.052
9.486,-0.051
9.488,-0.050
9.490,-0.050
9.492,-0.050
9.494,-0.051
9.496,-0.053
9.498,-0.055
9.500,-0.056
9.502,-0.057
9.504,-0.057
9.506,-0.057
9.508,-0.056
9.510,-0.056
9.512,-0.056
9.514,-0.056
9.516,-0.055
9.518,-0.055
9.520,-0.054
9.522,-0.052
9.524,-0.051
9.526,-0.049
9.528,-0.048
9.530,-0.047
9.532,-0.046
9.534,-0.046
9.536,-0.046
9.538,-0.048
9.540,-0.051
9.542,-0.053
9.544,-0.055
9.546,-0.055
9.548,-0.055
9.550,-0.053
9.552,-0.052
9.554,-0.051
9.556,-0.051
9.558,-0.052
9.560,-0.052
9.562,-0.053
9.564,-0.053
9.566,-0.054
9.568,-0.055
9.570,-0.057
9.572,-0.058
9.574,-0.058
9.576,-0.058
9.578,-0.057
9.580,-0.055
9.582,-0.053
9.584,-0.051
9.586,-0.050
9.588,-0.050
9.590,-0.051
9.592,-0.053
9.594,-0.054
9.596,-0.055
9.598,-0.055
9.600,-0.054
9.602,-0.052
9.604,-0.051
9.606,-0.050
9.608,-0.051
9.610,-0.053
9.612,-0.054
9.614,-0.055
9.616,-0.054
9.618,-0.052
9.620,-0.049
9.622,-0.047
9.624,-0.047
9.626,-0.047
9.628,-0.049
9.630,-0.050
9.632,-0.050
9.634,-0.050
9.636,-0.049
9.638,-0.048
9.640,-0.047
9.642,-0.046
9.644,-0.044
9.646,-0.042
9.648,-0.038
9.650,-0.033
9.652,-0.028
9.654,-0.025
9.656,-0.023
9.658,-0.023
9.660,-0.025
9.662,-0.026
9.664,-0.025
9.666,-0.022
9.668,-0.017
9.670,-0.009
9.672,-0.001
9.674,0.007
9.676,0.012
9.678,0.016
9.680,0.019
9.682,0.021
9.684,0.023
9.686,0.027
9.688,0.032
9.690,0.037
9.692,0.042
9.694,0.046
9.696,0.049
9.698,0.049
9.700,0.047
9.702,0.044
9.704,0.039
9.706,0.032
9.708,0.024
9.710,0.014
9.712,0.002
9.714,-0.011
9.716,-0.024
9.718,-0.036
9.720,-0.047
9.722,-0.055
9.724,-0.061
9.726,-0.064
9.728,-0.065
9.730,-0.063
9.732,-0.061
9.734,-0.060
9.736,-0.060
9.738,-0.062
9.740,-0.066
9.742,-0.069
9.744,-0.071
9.746,-0.072
9.748,-0.071
9.750,-0.069
9.752,-0.067
9.754,-0.065
9.756,-0.066
9.758,-0.069
9.760,-0.072
9.762,-0.076
9.764,-0.078
9.766,-0.077
9.768,-0.075
9.770,-0.071
9.772,-0.067
9.774,-0.065
9.776,-0.065
9.778,-0.068
9.780,-0.075
9.782,-0.085
9.784,-0.096
9.786,-0.107
9.788,-0.115
9.790,-0.119
9.792,-0.115
9.794,-0.102
9.796,-0.077
9.798,-0.038
9.800,0.018
9.802,0.091
9.804,0.181
9.806,0.284
9.808,0.394
9.810,0.502
9.812,0.598
9.814,0.674
9.816,0.723
9.818,0.739
9.820,0.716
9.822,0.650
9.824,0.539
9.826,0.389
9.828,0.212
9.830,0.025
9.832,-0.151
9.834,-0.297
9.836,-0.401
9.838,-0.459
9.840,-0.478
9.842,-0.467
9.844,-0.440
9.846,-0.407
9.848,-0.374
9.850,-0.343
9.852,-0.317
9.854,-0.295
9.856,-0.276
9.858,-0.258
9.860,-0.241
9.862,-0.222
9.864,-0.199
9.866,-0.172
9.868,-0.142
9.870,-0.113
9.872,-0.087
9.874,-0.068
9.876,-0.058
9.878,-0.054
9.880,-0.056
9.882,-0.060
9.884,-0.062
9.886,-0.062
9.888,-0.059
9.890,-0.053
9.892,-0.046
9.894,-0.039
9.896,-0.035
9.898,-0.033
9.900,-0.033
9.902,-0.034
9.904,-0.034
9.906,-0.032
9.908,-0.029
9.910,-0.026
9.912,-0.023
9.914,-0.022
9.916,-0.022
9.918,-0.024
9.920,-0.025
9.922,-0.025
9.924,-0.023
9.926,-0.019
9.928,-0.014
9.930,-0.009
9.932,-0.004
9.934,-0.002
9.936,-0.003
9.938,-0.005
9.940,-0.009
9.942,-0.012
9.944,-0.014
9.946,-0.014
9.948,-0.013
9.950,-0.009
9.952,-0.004
9.954,0.001
9.956,0.006
9.958,0.010
9.960,0.013
9.962,0.015
9.964,0.015
9.966,0.015
9.968,0.015
9.970,0.017
9.972,0.019
9.974,0.022
9.976,0.025
9.978,0.027
9.980,0.028
9.982,0.029
9.984,0.031
9.986,0.033
9.988,0.038
9.990,0.043
9.992,0.049
9.994,0.053
9.996,0.056
9.998,0.057
10.000,0.057
10.002,0.057
10.004,0.058
10.006,0.060
10.008,0.063
10.010,0.068
10.012,0.073
10.014,0.079
10.016,0.086
10.018,0.092
10.020,0.098
10.022,0.104
10.024,0.110
10.026,0.116
10.028,0.121
10.030,0.127
10.032,0.133
10.034,0.139
10.036,0.146
10.038,0.153
10.040,0.160
10.042,0.167
10.044,0.175
10.046,0.182
10.048,0.189
10.050,0.196
10.052,0.204
10.054,0.212
10.056,0.221
10.058,0.230
10.060,0.239
10.062,0.247
10.064,0.253
10.066,0.256
10.068,0.258
10.070,0.259
10.072,0.261
10.074,0.263
10.076,0.266
10.078,0.270
10.080,0.275
10.082,0.279
10.084,0.281
10.086,0.280
10.088,0.277
10.090,0.270
10.092,0.260
10.094,0.248
10.096,0.236
10.098,0.223
10.100,0.211
10.102,0.200
10.104,0.189
10.106,0.178
10.108,0.166
10.110,0.154
10.112,0.140
10.114,0.126
10.116,0.111
10.118,0.096
10.120,0.082
10.122,0.068
10.124,0.056
10.126,0.044
10.128,0.035
10.130,0.026
10.132,0.019
10.134,0.011
10.136,0.004
10.138,-0.005
10.140,-0.014
10.142,-0.023
10.144,-0.031
10.146,-0.036
10.148,-0.039
10.150,-0.040
10.152,-0.040
10.154,-0.039
10.156,-0.040
10.158,-0.041
10.160,-0.043
10.162,-0.045
10.164,-0.047
10.166,-0.049
10.168,-0.051
10.170,-0.052
10.172,-0.054
10.174,-0.054
10.176,-0.054
10.178,-0.053
10.180,-0.051
10.182,-0.048
10.184,-0.045
10.186,-0.044
10.188,-0.044
10.190,-0.045
10.192,-0.048
10.194,-0.051
10.196,-0.054
10.198,-0.055
10.200,-0.056
10.202,-0.056
10.204,-0.055
10.206,-0.053
10.208,-0.051
10.210,-0.049
10.212,-0.047
10.214,-0.045
10.216,-0.045
10.218,-0.045
10.220,-0.047
10.222,-0.050
10.224,-0.054
10.226,-0.057
10.228,-0.059
10.230,-0.060
10.232,-0.060
10.234,-0.059
10.236,-0.057
10.238,-0.055
10.240,-0.053
10.242,-0.052
10.244,-0.051
10.246,-0.051
10.248,-0.052
10.250,-0.052
10.252,-0.052
10.254,-0.051
10.256,-0.050
10.258,-0.049
10.260,-0.047
10.262,-0.046
10.264,-0.044
10.266,-0.043
10.268,-0.043
10.270,-0.043
10.272,-0.044
10.274,-0.047
10.276,-0.049
10.278,-0.050
10.280,-0.051
10.282,-0.051
10.284,-0.049
10.286,-0.047
10.288,-0.046
10.290,-0.044
10.292,-0.043
10.294,-0.042
10.296,-0.041
10.298,-0.041
10.300,-0.041
10.302,-0.042
10.304,-0.044
10.306,-0.046
10.308,-0.047
10.310,-0.048
10.312,-0.049
10.314,-0.049
10.316,-0.048
10.318,-0.048
10.320,-0.048
10.322,-0.049
10.324,-0.050
10.326,-0.051
10.328,-0.051
10.330,-0.050
10.332,-0.048
10.334,-0.046
10.336,-0.045
10.338,-0.045
10.340,-0.046
10.342,-0.049
10.344,-0.052
10.346,-0.054
10.348,-0.055
10.350,-0.056
10.352,-0.056
10.354,-0.056
10.356,-0.056
10.358,-0.056
10.360,-0.055
10.362,-0.054
10.364,-0.053
10.366,-0.052
10.368,-0.051
10.370,-0.051
10.372,-0.051
10.374,-0.052
10.376,-0.052
10.378,-0.051
10.380,-0.050
10.382,-0.049
10.384,-0.049
10.386,-0.049
10.388,-0.050
10.390,-0.051
10.392,-0.052
10.394,-0.053
10.396,-0.053
10.398,-0.052
10.400,-0.052
10.402,-0.051
10.404,-0.049
10.406,-0.046
10.408,-0.041
10.410,-0.036
10.412,-0.032
10.414,-0.027
10.416,-0.025
10.418,-0.023
10.420,-0.023
10.422,-0.023
10.424,-0.023
10.426,-0.023
10.428,-0.023
10.430,-0.023
10.432,-0.022
10.434,-0.022
10.436,-0.020
10.438,-0.016
10.440,-0.011
10.442,-0.004
10.444,0.002
10.446,0.008
10.448,0.012
10.450,0.015
10.452,0.016
10.454,0.017
10.456,0.018
10.458,0.020
10.460,0.024
10.462,0.028
10.464,0.032
10.466,0.034
10.468,0.034
10.470,0.033
10.472,0.030
10.474,0.025
10.476,0.020
10.478,0.013
10.480,0.006
10.482,-0.002
10.484,-0.012
10.486,-0.023
10.488,-0.035
10.490,-0.048
10.492,-0.059
10.494,-0.069
10.496,-0.076
10.498,-0.079
10.500,-0.080
10.502,-0.079
10.504,-0.077
10.506,-0.076
10.508,-0.076
10.510,-0.077
10.512,-0.079
10.514,-0.080
10.516,-0.081
10.518,-0.082
10.520,-0.081
10.522,-0.080
10.524,-0.079
10.526,-0.078
10.528,-0.079
10.530,-0.082
10.532,-0.087
10.534,-0.092
10.536,-0.097
10.538,-0.099
10.540,-0.098
10.542,-0.094
10.544,-0.088
10.546,-0.084
10.548,-0.081
10.550,-0.081
10.552,-0.084
10.554,-0.091
10.556,-0.099
10.558,-0.109
10.560,-0.117
10.562,-0.123
10.564,-0.124
10.566,-0.117
10.568,-0.100
10.570,-0.069
10.572,-0.023
10.574,0.040
10.576,0.122
10.578,0.220
10.580,0.327
10.582,0.437
10.584,0.540
10.586,0.627
10.588,0.689
10.590,0.718
10.592,0.708
10.594,0.653
10.596,0.553
10.598,0.411
10.600,0.237
10.602,0.049
10.604,-0.132
10.606,-0.288
10.608,-0.404
10.610,-0.474
10.612,-0.497
10.614,-0.497
10.616,-0.472
10.618,-0.438
10.620,-0.405
10.622,-0.376
10.624,-0.353
10.626,-0.336
10.628,-0.323
10.630,-0.312
10.632,-0.300
10.634,-0.285
10.636,-0.265
10.638,-0.238
10.640,-0.205
10.642,-0.170
10.644,-0.136
10.646,-0.109
10.648,-0.091
10.650,-0.083
10.652,-0.082
10.654,-0.084
10.656,-0.086
10.658,-0.085
10.660,-0.080
10.662,-0.071
10.664,-0.062
10.666,-0.053
10.668,-0.047
10.670,-0.044
10.672,-0.044
10.674,-0.045
10.676,-0.047
10.678,-0.048
10.680,-0.047
10.682,-0.043
10.684,-0.038
10.686,-0.034
10.688,-0.030
10.690,-0.027
10.692,-0.026
10.694,-0.025
10.696,-0.025
10.698,-0.024
10.700,-0.021
10.702,-0.018
10.704,-0.014
10.706,-0.010
10.708,-0.008
10.710,-0.007
10.712,-0.007
10.714,-0.008
10.716,-0.010
10.718,-0.012
10.720,-0.012
10.722,-0.011
10.724,-0.009
10.726,-0.006
10.728,-0.003
10.730,0.000
10.732,0.004
10.734,0.008
10.736,0.011
10.738,0.015
10.740,0.017
10.742,0.019
10.744,0.020
10.746,0.020
10.748,0.020
10.750,0.021
10.752,0.024
10.754,0.026
10.756,0.030
10.758,0.033
10.760,0.035
10.762,0.038
10.764,0.040
10.766,0.043
10.768,0.046
10.770,0.050
10.772,0.054
10.774,0.057
10.776,0.060
10.778,0.063
10.780,0.065
10.782,0.068
10.784,0.071
10.786,0.075
10.788,0.079
10.790,0.084
10.792,0.090
10.794,0.095
10.796,0.101
10.798,0.107
10.800,0.113
10.802,0.120
10.804,0.127
10.806,0.134
10.808,0.142
10.810,0.150
10.812,0.158
10.814,0.166
10.816,0.173
10.818,0.180
10.820,0.186
10.822,0.192
10.824,0.198
10.826,0.203
10.828,0.209
10.830,0.215
10.832,0.222
10.834,0.229
10.836,0.236
10.838,0.242
10.840,0.248
10.842,0.253
10.844,0.258
10.846,0.261
10.848,0.263
10.850,0.264
10.852,0.266
10.854,0.267
10.856,0.267
10.858,0.268
10.860,0.267
10.862,0.266
10.864,0.262
10.866,0.256
10.868,0.248
10.870,0.236
10.872,0.222
10.874,0.207
10.876,0.191
10.878,0.176
10.880,0.161
10.882,0.147
10.884,0.134
10.886,0.119
10.888,0.105
10.890,0.089
10.892,0.075
10.894,0.062
10.896,0.050
10.898,0.040
10.900,0.031
10.902,0.022
10.904,0.014
10.906,0.006
10.908,-0.002
10.910,-0.008
10.912,-0.015
10.914,-0.020
10.916,-0.026
10.918,-0.032
10.920,-0.037
10.922,-0.042
10.924,-0.046
10.926,-0.049
10.928,-0.051
10.930,-0.052
10.932,-0.053
10.934,-0.054
10.936,-0.056
10.938,-0.058
10.940,-0.060
10.942,-0.062
10.944,-0.064
10.946,-0.065
10.948,-0.065
10.950,-0.065
10.952,-0.064
10.954,-0.062
10.956,-0.062
10.958,-0.063
10.960,-0.065
10.962,-0.068
10.964,-0.072
10.966,-0.075
10.968,-0.076
10.970,-0.076
10.972,-0.075
10.974,-0.074
10.976,-0.073
10.978,-0.072
10.980,-0.072
10.982,-0.071
10.984,-0.070
10.986,-0.068
10.988,-0.065
10.990,-0.062
10.992,-0.061
10.994,-0.060
10.996,-0.061
10.998,-0.061
11.000,-0.062
11.002,-0.062
11.004,-0.061
11.006,-0.059
11.008,-0.058
11.010,-0.056
11.012,-0.056
11.014,-0.055
11.016,-0.055
11.018,-0.055
11.020,-0.055
11.022,-0.055
11.024,-0.056
11.026,-0.056
11.028,-0.057
11.030,-0.058
11.032,-0.059
11.034,-0.059
11.036,-0.058
11.038,-0.057
11.040,-0.055
11.042,-0.052
11.044,-0.048
11.046,-0.045
11.048,-0.044
11.050,-0.043
11.052,-0.045
11.054,-0.047
11.056,-0.050
11.058,-0.052
11.060,-0.053
11.062,-0.053
11.064,-0.052
11.066,-0.051
11.068,-0.050
11.070,-0.049
11.072,-0.048
11.074,-0.047
11.076,-0.047
11.078,-0.048
11.080,-0.049
11.082,-0.050
11.084,-0.052
11.086,-0.053
11.088,-0.054
11.090,-0.053
11.092,-0.052
11.094,-0.050
11.096,-0.050
11.098,-0.050
11.100,-0.051
11.102,-0.052
11.104,-0.054
11.106,-0.055
11.108,-0.055
11.110,-0.056
11.112,-0.055
11.114,-0.055
11.116,-0.054
11.118,-0.054
11.120,-0.053
11.122,-0.051
11.124,-0.050
11.126,-0.047
11.128,-0.044
11.130,-0.041
11.132,-0.036
11.134,-0.032
11.136,-0.027
11.138,-0.023
11.140,-0.020
11.142,-0.019
11.144,-0.021
11.146,-0.024
11.148,-0.028
11.150,-0.032
11.152,-0.034
11.154,-0.033
11.156,-0.030
11.158,-0.023
11.160,-0.015
11.162,-0.006
11.164,0.001
11.166,0.007
11.168,0.012
11.170,0.016
11.172,0.020
11.174,0.023
11.176,0.027
11.178,0.031
11.180,0.034
11.182,0.035
11.184,0.035
11.186,0.033
11.188,0.029
11.190,0.023
11.192,0.015
11.194,0.007
11.196,-0.003
11.198,-0.014
11.200,-0.024
11.202,-0.034
11.204,-0.043
11.206,-0.050
11.208,-0.057
11.210,-0.061
11.212,-0.065
11.214,-0.067
11.216,-0.070
11.218,-0.072
11.220,-0.075
11.222,-0.078
11.224,-0.081
11.226,-0.083
11.228,-0.085
11.230,-0.084
11.232,-0.082
11.234,-0.079
11.236,-0.075
11.238,-0.073
11.240,-0.072
11.242,-0.074
11.244,-0.079
11.246,-0.084
11.248,-0.089
11.250,-0.092
11.252,-0.092
11.254,-0.087
11.256,-0.081
11.258,-0.073
11.260,-0.067
11.262,-0.065
11.264,-0.066
11.266,-0.072
11.268,-0.081
11.270,-0.092
11.272,-0.103
11.274,-0.113
11.276,-0.119
11.278,-0.121
11.280,-0.115
11.282,-0.100
11.284,-0.073
11.286,-0.030
11.288,0.030
11.290,0.107
11.292,0.201
11.294,0.307
11.296,0.417
11.298,0.521
11.300,0.611
11.302,0.677
11.304,0.711
11.306,0.706
11.308,0.658
11.310,0.565
11.312,0.430
11.314,0.264
11.316,0.083
11.318,-0.094
11.320,-0.248
11.322,-0.363
11.324,-0.433
11.326,-0.461
11.328,-0.457
11.330,-0.432
11.332,-0.398
11.334,-0.364
11.336,-0.335
11.338,-0.313
11.340,-0.296
11.342,-0.282
11.344,-0.270
11.346,-0.258
11.348,-0.243
11.350,-0.223
11.352,-0.199
11.354,-0.170
11.356,-0.140
11.358,-0.112
11.360,-0.088
11.362,-0.071
11.364,-0.063
11.366,-0.061
11.368,-0.062
11.370,-0.065
11.372,-0.065
11.374,-0.063
11.376,-0.058
11.378,-0.051
11.380,-0.044
11.382,-0.040
11.384,-0.037
11.386,-0.037
11.388,-0.038
11.390,-0.039
11.392,-0.038
11.394,-0.036
11.396,-0.031
11.398,-0.026
11.400,-0.021
11.402,-0.017
11.404,-0.016
11.406,-0.017
11.408,-0.018
11.410,-0.018
11.412,-0.017
11.414,-0.014
11.416,-0.010
11.418,-0.006
11.420,-0.003
11.422,-0.002
11.424,-0.003
11.426,-0.005
11.428,-0.008
11.430,-0.009
11.432,-0.009
11.434,-0.007
11.436,-0.004
11.438,-0.001
11.440,0.001
11.442,0.003
11.444,0.005
11.446,0.007
11.448,0.008
11.450,0.010
11.452,0.011
11.454,0.013
11.456,0.014
11.458,0.015
11.460,0.016
11.462,0.017
11.464,0.020
11.466,0.023
11.468,0.028
11.470,0.032
11.472,0.036
11.474,0.040
11.476,0.042
11.478,0.044
11.480,0.045
11.482,0.046
11.484,0.048
11.486,0.051
11.488,0.055
11.490,0.060
11.492,0.066
11.494,0.071
11.496,0.076
11.498,0.081
11.500,0.086
11.502,0.091
11.504,0.095
11.506,0.099
11.508,0.104
11.510,0.108
11.512,0.113
11.514,0.119
11.516,0.126
11.518,0.132
11.520,0.140
11.522,0.147
11.524,0.154
11.526,0.161
11.528,0.168
11.530,0.174
11.532,0.179
11.534,0.185
11.536,0.191
11.538,0.199
11.540,0.208
11.542,0.217
11.544,0.227
11.546,0.236
11.548,0.243
11.550,0.249
11.552,0.252
11.554,0.255
11.556,0.257
11.558,0.259
11.560,0.261
11.562,0.264
11.564,0.267
11.566,0.270
11.568,0.271
11.570,0.271
11.572,0.270
11.574,0.267
11.576,0.263
11.578,0.256
11.580,0.248
11.582,0.237
11.584,0.224
11.586,0.209
11.588,0.193
11.590,0.178
11.592,0.163
11.594,0.149
11.596,0.135
11.598,0.122
11.600,0.109
11.602,0.096
11.604,0.084
11.606,0.072
11.608,0.061
11.610,0.050
11.612,0.040
11.614,0.030
11.616,0.020
11.618,0.010
11.620,0.000
11.622,-0.008
11.624,-0.016
11.626,-0.022
11.628,-0.027
11.630,-0.031
11.632,-0.034
11.634,-0.037
11.636,-0.039
11.638,-0.041
11.640,-0.043
11.642,-0.045
11.644,-0.047
11.646,-0.048
11.648,-0.049
11.650,-0.050
11.652,-0.050
11.654,-0.050
11.656,-0.050
11.658,-0.050
11.660,-0.050
11.662,-0.050
11.664,-0.051
11.666,-0.052
11.668,-0.054
11.670,-0.057
11.672,-0.061
11.674,-0.064
11.676,-0.066
11.678,-0.068
11.680,-0.068
11.682,-0.068
11.684,-0.067
11.686,-0.066
11.688,-0.066
11.690,-0.066
11.692,-0.065
11.694,-0.065
11.696,-0.065
11.698,-0.064
11.700,-0.063
11.702,-0.062
11.704,-0.061
11.706,-0.060
11.708,-0.059
11.710,-0.059
11.712,-0.057
11.714,-0.056
11.716,-0.055
11.718,-0.053
11.720,-0.052
11.722,-0.053
11.724,-0.054
11.726,-0.055
11.728,-0.057
11.730,-0.057
11.732,-0.057
11.734,-0.056
11.736,-0.053
11.738,-0.051
11.740,-0.049
11.742,-0.047
11.744,-0.045
11.746,-0.045
11.748,-0.044
11.750,-0.045
11.752,-0.046
11.754,-0.048
11.756,-0.049
11.758,-0.051
11.760,-0.051
11.762,-0.051
11.764,-0.049
11.766,-0.047
11.768,-0.044
11.770,-0.041
11.772,-0.039
11.774,-0.037
11.776,-0.036
11.778,-0.037
11.780,-0.038
11.782,-0.040
11.784,-0.042
11.786,-0.045
11.788,-0.048
11.790,-0.050
11.792,-0.052
11.794,-0.054
11.796,-0.055
11.798,-0.056
11.800,-0.057
11.802,-0.057
11.804,-0.056
11.806,-0.056
11.808,-0.056
11.810,-0.055
11.812,-0.055
11.814,-0.056
11.816,-0.055
11.818,-0.055
11.820,-0.054
11.822,-0.052
11.824,-0.051
11.826,-0.051
11.828,-0.052
11.830,-0.054
11.832,-0.056
11.834,-0.058
11.836,-0.059
11.838,-0.059
11.840,-0.058
11.842,-0.057
11.844,-0.056
11.846,-0.056
11.848,-0.056
11.850,-0.057
11.852,-0.057
11.854,-0.057
11.856,-0.055
11.858,-0.052
11.860,-0.049
11.862,-0.046
11.864,-0.044
11.866,-0.042
11.868,-0.041
11.870,-0.039
11.872,-0.038
11.874,-0.037
11.876,-0.037
11.878,-0.037
11.880,-0.037
11.882,-0.037
11.884,-0.036
11.886,-0.033
11.888,-0.027
11.890,-0.020
11.892,-0.012
11.894,-0.005
11.896,0.002
11.898,0.006
11.900,0.008
11.902,0.010
11.904,0.011
11.906,0.014
11.908,0.019
11.910,0.024
11.912,0.030
11.914,0.034
11.916,0.036
11.918,0.036
11.920,0.034
11.922,0.031
11.924,0.026
11.926,0.021
11.928,0.014
11.930,0.006
11.932,-0.003
11.934,-0.014
11.936,-0.027
11.938,-0.040
11.940,-0.053
11.942,-0.063
11.944,-0.071
11.946,-0.075
11.948,-0.075
11.950,-0.074
11.952,-0.072
11.954,-0.071
11.956,-0.072
11.958,-0.074
11.960,-0.078
11.962,-0.081
11.964,-0.083
11.966,-0.083
11.968,-0.081
11.970,-0.078
11.972,-0.073
11.974,-0.070
11.976,-0.069
11.978,-0.070
11.980,-0.074
11.982,-0.079
11.984,-0.084
11.986,-0.088
11.988,-0.088
11.990,-0.086
11.992,-0.081
11.994,-0.076
11.996,-0.072
11.998,-0.073
12.000,-0.077
12.002,-0.085
12.004,-0.096
12.006,-0.107
12.008,-0.117
12.010,-0.122
12.012,-0.122
12.014,-0.113
12.016,-0.093
12.018,-0.058
12.020,-0.007
12.022,0.062
12.024,0.149
12.026,0.250
12.028,0.359
12.030,0.467
12.032,0.567
12.034,0.650
12.036,0.709
12.038,0.737
12.040,0.729
12.042,0.679
12.044,0.584
12.046,0.447
12.048,0.279
12.050,0.095
12.052,-0.084
12.054,-0.239
12.056,-0.355
12.058,-0.427
12.060,-0.458
12.062,-0.456
12.064,-0.434
12.066,-0.404
12.068,-0.372
12.070,-0.343
12.072,-0.319
12.074,-0.299
12.076,-0.282
12.078,-0.266
12.080,-0.251
12.082,-0.234
12.084,-0.213
12.086,-0.188
12.088,-0.159
12.090,-0.129
12.092,-0.101
12.094,-0.080
12.096,-0.066
12.098,-0.061
12.100,-0.063
12.102,-0.067
12.104,-0.070
12.106,-0.070
12.108,-0.066
12.110,-0.059
12.112,-0.051
12.114,-0.045
12.116,-0.042
12.118,-0.042
12.120,-0.046
12.122,-0.050
12.124,-0.052
12.126,-0.052
12.128,-0.050
12.130,-0.045
12.132,-0.039
12.134,-0.035
12.136,-0.031
12.138,-0.030
12.140,-0.030
12.142,-0.031
12.144,-0.032
12.146,-0.032
12.148,-0.031
12.150,-0.029
12.152,-0.026
12.154,-0.023
12.156,-0.020
12.158,-0.018
12.160,-0.018
12.162,-0.018
12.164,-0.018
12.166,-0.018
12.168,-0.018
12.170,-0.018
12.172,-0.016
12.174,-0.014
12.176,-0.013
12.178,-0.011
12.180,-0.010
12.182,-0.008
12.184,-0.006
12.186,-0.004
12.188,-0.002
12.190,0.000
12.192,0.001
12.194,0.002
12.196,0.002
12.198,0.003
12.200,0.005
12.202,0.007
12.204,0.011
12.206,0.015
12.208,0.020
12.210,0.024
12.212,0.029
12.214,0.033
12.216,0.036
12.218,0.039
12.220,0.041
12.222,0.042
12.224,0.044
12.226,0.046
12.228,0.050
12.230,0.054
12.232,0.060
12.234,0.066
12.236,0.073
12.238,0.081
12.240,0.088
12.242,0.094
12.244,0.099
12.246,0.103
12.248,0.107
12.250,0.111
12.252,0.116
12.254,0.123
12.256,0.131
12.258,0.140
12.260,0.149
12.262,0.158
12.264,0.166
12.266,0.173
12.268,0.181
12.270,0.188
12.272,0.194
12.274,0.200
12.276,0.206
12.278,0.211
12.280,0.217
12.282,0.224
12.284,0.231
12.286,0.238
12.288,0.245
12.290,0.251
12.292,0.255
12.294,0.258
12.296,0.259
12.298,0.260
12.300,0.261
12.302,0.262
12.304,0.263
12.306,0.263
12.308,0.263
12.310,0.260
12.312,0.256
12.314,0.250
12.316,0.241
12.318,0.231
12.320,0.219
12.322,0.205
12.324,0.190
12.326,0.175
12.328,0.159
12.330,0.143
12.332,0.128
12.334,0.115
12.336,0.102
12.338,0.090
12.340,0.077
12.342,0.064
12.344,0.051
12.346,0.037
12.348,0.025
12.350,0.014
12.352,0.004
12.354,-0.003
12.356,-0.009
12.358,-0.014
12.360,-0.018
12.362,-0.022
12.364,-0.026
12.366,-0.030
12.368,-0.034
12.370,-0.037
12.372,-0.039
12.374,-0.040
12.376,-0.042
12.378,-0.043
12.380,-0.044
12.382,-0.045
12.384,-0.047
12.386,-0.049
12.388,-0.050
12.390,-0.051
12.392,-0.052
12.394,-0.053
12.396,-0.055
12.398,-0.058
12.400,-0.060
12.402,-0.061
12.404,-0.061
12.406,-0.060
12.408,-0.058
12.410,-0.057
12.412,-0.057
12.414,-0.058
12.416,-0.060
12.418,-0.061
12.420,-0.062
12.422,-0.062
12.424,-0.061
12.426,-0.061
12.428,-0.060
12.430,-0.060
12.432,-0.059
12.434,-0.058
12.436,-0.057
12.438,-0.056
12.440,-0.054
12.442,-0.053
12.444,-0.053
12.446,-0.053
12.448,-0.054
12.450,-0.054
12.452,-0.054
12.454,-0.053
12.456,-0.052
12.458,-0.051
12.460,-0.051
12.462,-0.051
12.464,-0.052
12.466,-0.053
12.468,-0.054
12.470,-0.055
12.472,-0.055
12.474,-0.054
12.476,-0.053
12.478,-0.052
12.480,-0.052
12.482,-0.052
12.484,-0.052
12.486,-0.051
12.488,-0.050
12.490,-0.048
12.492,-0.046
12.494,-0.045
12.496,-0.045
12.498,-0.047
12.500,-0.049
12.502,-0.051
12.504,-0.052
12.506,-0.053
12.508,-0.052
12.510,-0.052
12.512,-0.051
12.514,-0.051
12.516,-0.051
12.518,-0.051
12.520,-0.051
12.522,-0.050
12.524,-0.049
12.526,-0.048
12.528,-0.047
12.530,-0.046
12.532,-0.046
12.534,-0.046
12.536,-0.046
12.538,-0.047
12.540,-0.047
12.542,-0.047
12.544,-0.047
12.546,-0.047
12.548,-0.048
12.550,-0.049
12.552,-0.050
12.554,-0.051
12.556,-0.051
12.558,-0.051
12.560,-0.051
12.562,-0.050
12.564,-0.051
12.566,-0.051
12.568,-0.052
12.570,-0.052
12.572,-0.052
12.574,-0.051
12.576,-0.050
12.578,-0.049
12.580,-0.049
12.582,-0.050
12.584,-0.052
12.586,-0.055
12.588,-0.057
12.590,-0.058
12.592,-0.058
12.594,-0.057
12.596,-0.056
12.598,-0.056
12.600,-0.056
12.602,-0.057
12.604,-0.058
12.606,-0.059
12.608,-0.059
12.610,-0.060
12.612,-0.060
12.614,-0.060
12.616,-0.060
12.618,-0.059
12.620,-0.058
12.622,-0.056
12.624,-0.055
12.626,-0.053
12.628,-0.052
12.630,-0.051
12.632,-0.050
12.634,-0.049
12.636,-0.046
12.638,-0.043
12.640,-0.038
12.642,-0.033
12.644,-0.029
12.646,-0.026
12.648,-0.024
12.650,-0.023
12.652,-0.023
12.654,-0.023
12.656,-0.022
12.658,-0.020
12.660,-0.017
12.662,-0.011
12.664,-0.005
12.666,0.002
12.668,0.009
12.670,0.015
12.672,0.019
12.674,0.022
12.676,0.024
12.678,0.026
12.680,0.028
12.682,0.032
12.684,0.037
12.686,0.042
12.688,0.047
12.690,0.050
12.692,0.051
12.694,0.050
12.696,0.046
12.698,0.041
12.700,0.034
12.702,0.026
12.704,0.018
12.706,0.010
12.708,0.000
12.710,-0.009
12.712,-0.020
12.714,-0.030
12.716,-0.041
12.718,-0.051
12.720,-0.060
12.722,-0.067
12.724,-0.070
12.726,-0.071
12.728,-0.069
12.730,-0.067
12.732,-0.065
12.734,-0.065
12.736,-0.067
12.738,-0.071
12.740,-0.076
12.742,-0.079
12.744,-0.080
12.746,-0.078
12.748,-0.075
12.750,-0.072
12.752,-0.070
12.754,-0.071
12.756,-0.074
12.758,-0.078
12.760,-0.082
12.762,-0.084
12.764,-0.083
12.766,-0.080
12.768,-0.074
12.770,-0.069
12.772,-0.065
12.774,-0.064
12.776,-0.067
12.778,-0.075
12.780,-0.086
12.782,-0.099
12.784,-0.111
12.786,-0.119
12.788,-0.122
12.790,-0.115
12.792,-0.098
12.794,-0.069
12.796,-0.026
12.798,0.032
12.800,0.107
12.802,0.198
12.804,0.300
12.806,0.408
12.808,0.513
12.810,0.606
12.812,0.679
12.814,0.725
12.816,0.736
12.818,0.708
12.820,0.635
12.822,0.518
12.824,0.363
12.826,0.183
12.828,-0.005
12.830,-0.178
12.832,-0.319
12.834,-0.416
12.836,-0.468
12.838,-0.480
12.840,-0.465
12.842,-0.434
12.844,-0.399
12.846,-0.365
12.848,-0.336
12.850,-0.312
12.852,-0.292
12.854,-0.274
12.856,-0.257
12.858,-0.239
12.860,-0.218
12.862,-0.192
12.864,-0.162
12.866,-0.131
12.868,-0.101
12.870,-0.077
12.872,-0.062
12.874,-0.055
12.876,-0.056
12.878,-0.061
12.880,-0.067
12.882,-0.070
12.884,-0.068
12.886,-0.063
12.888,-0.056
12.890,-0.049
12.892,-0.043
12.894,-0.041
12.896,-0.042
12.898,-0.044
12.900,-0.046
12.902,-0.047
12.904,-0.044
12.906,-0.040
12.908,-0.034
12.910,-0.029
12.912,-0.027
12.914,-0.026
12.916,-0.028
12.918,-0.030
12.920,-0.032
12.922,-0.033
12.924,-0.031
12.926,-0.027
12.928,-0.022
12.930,-0.017
12.932,-0.012
12.934,-0.009
12.936,-0.008
12.938,-0.008
12.940,-0.010
12.942,-0.011
12.944,-0.011
12.946,-0.010
12.948,-0.007
12.950,-0.002
12.952,0.003
12.954,0.008
12.956,0.010
12.958,0.011
12.960,0.009
12.962,0.007
12.964,0.005
12.966,0.004
12.968,0.006
12.970,0.010
12.972,0.014
12.974,0.020
12.976,0.025
12.978,0.029
12.980,0.032
12.982,0.033
12.984,0.035
12.986,0.035
12.988,0.036
12.990,0.038
12.992,0.040
12.994,0.043
12.996,0.047
12.998,0.051
13.000,0.056
13.002,0.060
13.004,0.064
13.006,0.068
13.008,0.071
13.010,0.074
13.012,0.076
13.014,0.078
13.016,0.081
13.018,0.085
13.020,0.090
13.022,0.098
13.024,0.106
13.026,0.115
13.028,0.123
13.030,0.130
13.032,0.137
13.034,0.143
13.036,0.150
13.038,0.158
13.040,0.166
13.042,0.173
13.044,0.179
13.046,0.185
13.048,0.190
13.050,0.195
13.052,0.202
13.054,0.210
13.056,0.218
13.058,0.225
13.060,0.231
13.062,0.235
13.064,0.240
13.066,0.244
13.068,0.249
13.070,0.255
13.072,0.260
13.074,0.265
13.076,0.269
13.078,0.271
13.080,0.273
13.082,0.274
13.084,0.273
13.086,0.271
13.088,0.266
13.090,0.259
13.092,0.249
13.094,0.238
13.096,0.225
13.098,0.211
13.100,0.198
13.102,0.184
13.104,0.171
13.106,0.158
13.108,0.144
13.110,0.131
13.112,0.116
13.114,0.102
13.116,0.088
13.118,0.074
13.120,0.061
13.122,0.049
13.124,0.038
13.126,0.029
13.128,0.021
13.130,0.013
13.132,0.006
13.134,-0.002
13.136,-0.009
13.138,-0.015
13.140,-0.021
13.142,-0.026
13.144,-0.031
13.146,-0.035
13.148,-0.039
13.150,-0.043
13.152,-0.045
13.154,-0.047
13.156,-0.048
13.158,-0.047
13.160,-0.046
13.162,-0.045
13.164,-0.045
13.166,-0.047
13.168,-0.049
13.170,-0.051
13.172,-0.053
13.174,-0.054
13.176,-0.054
13.178,-0.054
13.180,-0.053
13.182,-0.053
13.184,-0.054
13.186,-0.055
13.188,-0.057
13.190,-0.058
13.192,-0.058
13.194,-0.059
13.196,-0.060
13.198,-0.060
13.200,-0.060
13.202,-0.061
13.204,-0.061
13.206,-0.060
13.208,-0.060
13.210,-0.059
13.212,-0.057
13.214,-0.055
13.216,-0.053
13.218,-0.051
13.220,-0.051
13.222,-0.052
13.224,-0.055
13.226,-0.057
13.228,-0.059
13.230,-0.060
13.232,-0.059
13.234,-0.058
13.236,-0.056
13.238,-0.055
13.240,-0.053
13.242,-0.051
13.244,-0.049
13.246,-0.046
13.248,-0.044
13.250,-0.043
13.252,-0.044
13.254,-0.045
13.256,-0.048
13.258,-0.051
13.260,-0.053
13.262,-0.054
13.264,-0.053
13.266,-0.052
13.268,-0.050
13.270,-0.049
13.272,-0.048
13.274,-0.048
13.276,-0.048
13.278,-0.048
13.280,-0.049
13.282,-0.050
13.284,-0.051
13.286,-0.052
13.288,-0.053
13.290,-0.054
13.292,-0.053
13.294,-0.053
13.296,-0.053
13.298,-0.053
13.300,-0.053
13.302,-0.053
13.304,-0.054
13.306,-0.054
13.308,-0.054
13.310,-0.053
13.312,-0.052
13.314,-0.051
13.316,-0.051
13.318,-0.051
13.320,-0.052
13.322,-0.052
13.324,-0.053
13.326,-0.053
13.328,-0.054
13.330,-0.055
13.332,-0.056
13.334,-0.058
13.336,-0.060
13.338,-0.061
13.340,-0.062
13.342,-0.061
13.344,-0.060
13.346,-0.059
13.348,-0.058
13.350,-0.057
13.352,-0.057
13.354,-0.057
13.356,-0.057
13.358,-0.058
13.360,-0.058
13.362,-0.059
13.364,-0.060
13.366,-0.061
13.368,-0.062
13.370,-0.062
13.372,-0.062
13.374,-0.062
13.376,-0.063
13.378,-0.063
13.380,-0.062
13.382,-0.060
13.384,-0.058
13.386,-0.056
13.388,-0.055
13.390,-0.054
13.392,-0.055
13.394,-0.056
13.396,-0.057
13.398,-0.057
13.400,-0.056
13.402,-0.053
13.404,-0.049
13.406,-0.045
13.408,-0.041
13.410,-0.036
13.412,-0.032
13.414,-0.029
13.416,-0.026
13.418,-0.024
13.420,-0.023
13.422,-0.023
13.424,-0.023
13.426,-0.024
13.428,-0.025
13.430,-0.023
13.432,-0.020
13.434,-0.014
13.436,-0.007
13.438,0.001
13.440,0.007
13.442,0.012
13.444,0.014
13.446,0.015
13.448,0.016
13.450,0.016
13.452,0.016
13.454,0.018
13.456,0.021
13.458,0.025
13.460,0.028
13.462,0.031
13.464,0.033
13.466,0.032
13.468,0.029
13.470,0.024
13.472,0.017
13.474,0.010
13.476,0.001
13.478,-0.008
13.480,-0.018
13.482,-0.029
13.484,-0.039
13.486,-0.048
13.488,-0.057
13.490,-0.063
13.492,-0.067
13.494,-0.070
13.496,-0.071
13.498,-0.072
13.500,-0.073
13.502,-0.074
13.504,-0.077
13.506,-0.081
13.508,-0.086
13.510,-0.090
13.512,-0.092
13.514,-0.092
13.516,-0.087
13.518,-0.081
13.520,-0.075
13.522,-0.071
13.524,-0.070
13.526,-0.073
13.528,-0.079
13.530,-0.086
13.532,-0.092
13.534,-0.095
13.536,-0.094
13.538,-0.090
13.540,-0.085
13.542,-0.079
13.544,-0.075
13.546,-0.075
13.548,-0.079
13.550,-0.087
13.552,-0.098
13.554,-0.110
13.556,-0.121
13.558,-0.129
13.560,-0.131
13.562,-0.124
13.564,-0.106
13.566,-0.074
13.568,-0.027
13.570,0.037
13.572,0.119
13.574,0.215
13.576,0.321
13.578,0.430
13.580,0.533
13.582,0.621
13.584,0.686
13.586,0.721
13.588,0.718
13.590,0.673
13.592,0.582
13.594,0.450
13.596,0.283
13.598,0.097
13.600,-0.086
13.602,-0.248
13.604,-0.370
13.606,-0.446
13.608,-0.477
13.610,-0.473
13.612,-0.447
13.614,-0.412
13.616,-0.377
13.618,-0.347
13.620,-0.322
13.622,-0.303
13.624,-0.287
13.626,-0.273
13.628,-0.259
13.630,-0.243
13.632,-0.224
13.634,-0.200
13.636,-0.170
13.638,-0.139
13.640,-0.108
13.642,-0.082
13.644,-0.065
13.646,-0.057
13.648,-0.056
13.650,-0.059
13.652,-0.062
13.654,-0.064
13.656,-0.063
13.658,-0.058
13.660,-0.052
13.662,-0.046
13.664,-0.042
13.666,-0.039
13.668,-0.037
13.670,-0.037
13.672,-0.037
13.674,-0.035
13.676,-0.034
13.678,-0.033
13.680,-0.032
13.682,-0.032
13.684,-0.034
13.686,-0.037
13.688,-0.039
13.690,-0.041
13.692,-0.040
13.694,-0.036
13.696,-0.029
13.698,-0.021
13.700,-0.014
13.702,-0.008
13.704,-0.006
13.706,-0.007
13.708,-0.010
13.710,-0.014
13.712,-0.018
13.714,-0.019
13.716,-0.018
13.718,-0.015
13.720,-0.010
13.722,-0.005
13.724,-0.000
13.726,0.003
13.728,0.006
13.730,0.008
13.732,0.008
13.734,0.008
13.736,0.007
13.738,0.007
13.740,0.008
13.742,0.009
13.744,0.012
13.746,0.015
13.748,0.018
13.750,0.020
13.752,0.023
13.754,0.025
13.756,0.029
13.758,0.033
13.760,0.038
13.762,0.043
13.764,0.047
13.766,0.049
13.768,0.051
13.770,0.052
13.772,0.053
13.774,0.055
13.776,0.058
13.778,0.062
13.780,0.066
13.782,0.071
13.784,0.077
13.786,0.082
13.788,0.087
13.790,0.093
13.792,0.098
13.794,0.103
13.796,0.108
13.798,0.114
13.800,0.122
13.802,0.132
13.804,0.141
13.806,0.151
13.808,0.159
13.810,0.166
13.812,0.171
13.814,0.176
13.816,0.180
13.818,0.185
13.820,0.190
13.822,0.195
13.824,0.201
13.826,0.207
13.828,0.213
13.830,0.220
13.832,0.228
13.834,0.236
13.836,0.244
13.838,0.251
13.840,0.257
13.842,0.262
13.844,0.265
13.846,0.268
13.848,0.269
13.850,0.270
13.852,0.271
13.854,0.271
13.856,0.269
13.858,0.266
13.860,0.261
13.862,0.254
13.864,0.246
13.866,0.236
13.868,0.225
13.870,0.213
13.872,0.200
13.874,0.185
13.876,0.169
13.878,0.151
13.880,0.133
13.882,0.115
13.884,0.099
13.886,0.086
13.888,0.074
13.890,0.063
13.892,0.053
13.894,0.043
13.896,0.033
13.898,0.023
13.900,0.014
13.902,0.006
13.904,-0.001
13.906,-0.007
13.908,-0.014
13.910,-0.022
13.912,-0.029
13.914,-0.036
13.916,-0.042
13.918,-0.047
13.920,-0.050
13.922,-0.053
13.924,-0.056
13.926,-0.059
13.928,-0.062
13.930,-0.064
13.932,-0.064
13.934,-0.064
13.936,-0.062
13.938,-0.062
13.940,-0.062
13.942,-0.063
13.944,-0.065
13.946,-0.067
13.948,-0.069
13.950,-0.070
13.952,-0.072
13.954,-0.073
13.956,-0.074
13.958,-0.075
13.960,-0.075
13.962,-0.074
13.964,-0.074
13.966,-0.073
13.968,-0.073
13.970,-0.073
13.972,-0.073
13.974,-0.073
13.976,-0.073
13.978,-0.074
13.980,-0.074
13.982,-0.075
13.984,-0.076
13.986,-0.076
13.988,-0.077
13.990,-0.076
13.992,-0.075
13.994,-0.074
13.996,-0.072
13.998,-0.070
14.000,-0.068
14.002,-0.067
14.004,-0.066
14.006,-0.065
14.008,-0.065
14.010,-0.064
14.012,-0.064
14.014,-0.064
14.016,-0.064
14.018,-0.064
14.020,-0.064
14.022,-0.063
14.024,-0.061
14.026,-0.059
14.028,-0.058
14.030,-0.057
14.032,-0.058
14.034,-0.059
14.036,-0.061
14.038,-0.063
14.040,-0.064
14.042,-0.063
14.044,-0.061
14.046,-0.059
14.048,-0.056
14.050,-0.053
14.052,-0.051
14.054,-0.049
14.056,-0.050
14.058,-0.051
14.060,-0.053
14.062,-0.057
14.064,-0.060
14.066,-0.062
14.068,-0.063
14.070,-0.063
14.072,-0.061
14.074,-0.058
14.076,-0.055
14.078,-0.053
14.080,-0.052
14.082,-0.052
14.084,-0.052
14.086,-0.054
14.088,-0.055
14.090,-0.056
14.092,-0.056
14.094,-0.056
14.096,-0.057
14.098,-0.057
14.100,-0.057
14.102,-0.058
14.104,-0.057
14.106,-0.056
14.108,-0.055
14.110,-0.054
14.112,-0.053
14.114,-0.051
14.116,-0.050
14.118,-0.048
14.120,-0.046
14.122,-0.045
14.124,-0.044
14.126,-0.043
14.128,-0.043
14.130,-0.042
14.132,-0.040
14.134,-0.036
14.136,-0.032
14.138,-0.027
14.140,-0.022
14.142,-0.019
14.144,-0.016
14.146,-0.014
14.148,-0.013
14.150,-0.012
14.152,-0.011
14.154,-0.010
14.156,-0.007
14.158,-0.004
14.160,0.002
14.162,0.007
14.164,0.013
14.166,0.018
14.168,0.022
14.170,0.025
14.172,0.028
14.174,0.031
14.176,0.035
14.178,0.040
14.180,0.046
14.182,0.052
14.184,0.056
14.186,0.058
14.188,0.058
14.190,0.054
14.192,0.048
14.194,0.039
14.196,0.029
14.198,0.018
14.200,0.007
14.202,-0.003
14.204,-0.013
14.206,-0.021
14.208,-0.029
14.210,-0.035
14.212,-0.042
14.214,-0.048
14.216,-0.053
14.218,-0.057
14.220,-0.060
14.222,-0.062
14.224,-0.065
14.226,-0.068
14.228,-0.073
14.230,-0.078
14.232,-0.083
14.234,-0.085
14.236,-0.085
14.238,-0.083
14.240,-0.079
14.242,-0.075
14.244,-0.072
14.246,-0.073
14.248,-0.076
14.250,-0.080
14.252,-0.085
14.254,-0.088
14.256,-0.088
14.258,-0.086
14.260,-0.082
14.262,-0.077
14.264,-0.073
14.266,-0.072
14.268,-0.073
14.270,-0.078
14.272,-0.085
14.274,-0.095
14.276,-0.105
14.278,-0.113
14.280,-0.119
14.282,-0.119
14.284,-0.112
14.286,-0.093
14.288,-0.061
14.290,-0.013
14.292,0.053
14.294,0.137
14.296,0.236
14.298,0.345
14.300,0.455
14.302,0.557
14.304,0.642
14.306,0.700
14.308,0.725
14.310,0.712
14.312,0.655
14.314,0.555
14.316,0.416
14.318,0.247
14.320,0.065
14.322,-0.111
14.324,-0.261
14.326,-0.373
14.328,-0.439
14.330,-0.464
14.332,-0.457
14.334,-0.431
14.336,-0.399
14.338,-0.367
14.340,-0.341
14.342,-0.321
14.344,-0.305
14.346,-0.292
14.348,-0.280
14.350,-0.266
14.352,-0.249
14.354,-0.228
14.356,-0.201
14.358,-0.171
14.360,-0.139
14.362,-0.110
14.364,-0.085
14.366,-0.069
14.368,-0.061
14.370,-0.059
14.372,-0.061
14.374,-0.064
14.376,-0.064
14.378,-0.061
14.380,-0.055
14.382,-0.048
14.384,-0.042
14.386,-0.039
14.388,-0.038
14.390,-0.039
14.392,-0.041
14.394,-0.043
14.396,-0.041
14.398,-0.037
14.400,-0.032
14.402,-0.025
14.404,-0.019
14.406,-0.015
14.408,-0.014
14.410,-0.014
14.412,-0.015
14.414,-0.015
14.416,-0.015
14.418,-0.013
14.420,-0.010
14.422,-0.008
14.424,-0.006
14.426,-0.006
14.428,-0.007
14.430,-0.010
14.432,-0.012
14.434,-0.012
14.436,-0.011
14.438,-0.008
14.440,-0.004
14.442,0.001
14.444,0.005
14.446,0.007
14.448,0.009
14.450,0.010
14.452,0.011
14.454,0.012
14.456,0.012
14.458,0.013
14.460,0.014
14.462,0.015
14.464,0.016
14.466,0.018
14.468,0.021
14.470,0.024
14.472,0.027
14.474,0.030
14.476,0.032
14.478,0.034
14.480,0.036
14.482,0.039
14.484,0.042
14.486,0.046
14.488,0.050
14.490,0.053
14.492,0.055
14.494,0.057
14.496,0.059
14.498,0.062
14.500,0.066
14.502,0.072
14.504,0.080
14.506,0.087
14.508,0.094
14.510,0.099
14.512,0.103
14.514,0.108
14.516,0.112
14.518,0.118
14.520,0.124
14.522,0.131
14.524,0.139
14.526,0.146
14.528,0.154
14.530,0.162
14.532,0.170
14.534,0.179
14.536,0.188
14.538,0.196
14.540,0.204
14.542,0.211
14.544,0.217
14.546,0.222
14.548,0.228
14.550,0.234
14.552,0.240
14.554,0.247
14.556,0.253
14.558,0.259
14.560,0.264
14.562,0.268
14.564,0.272
14.566,0.275
14.568,0.277
14.570,0.280
14.572,0.280
14.574,0.279
14.576,0.276
14.578,0.270
14.580,0.263
14.582,0.254
14.584,0.244
14.586,0.233
14.588,0.222
14.590,0.210
14.592,0.197
14.594,0.185
14.596,0.172
14.598,0.159
14.600,0.146
14.602,0.132
14.604,0.117
14.606,0.102
14.608,0.088
14.610,0.073
14.612,0.060
14.614,0.048
14.616,0.036
14.618,0.025
14.620,0.014
14.622,0.005
14.624,-0.004
14.626,-0.011
14.628,-0.016
14.630,-0.021
14.632,-0.024
14.634,-0.028
14.636,-0.031
14.638,-0.034
14.640,-0.038
14.642,-0.041
14.644,-0.044
14.646,-0.047
14.648,-0.049
14.650,-0.051
14.652,-0.052
14.654,-0.053
14.656,-0.055
14.658,-0.056
14.660,-0.057
14.662,-0.058
14.664,-0.058
14.666,-0.058
14.668,-0.058
14.670,-0.058
14.672,-0.060
14.674,-0.061
14.676,-0.062
14.678,-0.063
14.680,-0.063
14.682,-0.062
14.684,-0.062
14.686,-0.062
14.688,-0.063
14.690,-0.063
14.692,-0.064
14.694,-0.065
14.696,-0.064
14.698,-0.063
14.700,-0.061
14.702,-0.059
14.704,-0.057
14.706,-0.056
14.708,-0.056
14.710,-0.056
14.712,-0.057
14.714,-0.058
14.716,-0.059
14.718,-0.060
14.720,-0.059
14.722,-0.059
14.724,-0.058
14.726,-0.057
14.728,-0.055
14.730,-0.053
14.732,-0.050
14.734,-0.048
14.736,-0.047
14.738,-0.047
14.740,-0.048
14.742,-0.050
14.744,-0.053
14.746,-0.055
14.748,-0.056
14.750,-0.056
14.752,-0.057
14.754,-0.058
14.756,-0.059
14.758,-0.060
14.760,-0.060
14.762,-0.059
14.764,-0.057
14.766,-0.055
14.768,-0.052
14.770,-0.050
14.772,-0.048
14.774,-0.046
14.776,-0.045
14.778,-0.043
14.780,-0.043
14.782,-0.042
14.784,-0.043
14.786,-0.045
14.788,-0.047
14.790,-0.049
14.792,-0.052
14.794,-0.054
14.796,-0.055
14.798,-0.056
14.800,-0.056
14.802,-0.055
14.804,-0.054
14.806,-0.053
14.808,-0.052
14.810,-0.051
14.812,-0.049
14.814,-0.048
14.816,-0.047
14.818,-0.047
14.820,-0.046
14.822,-0.046
14.824,-0.047
14.826,-0.049
14.828,-0.051
14.830,-0.053
14.832,-0.056
14.834,-0.057
14.836,-0.058
14.838,-0.058
14.840,-0.058
14.842,-0.058
14.844,-0.057
14.846,-0.057
14.848,-0.057
14.850,-0.057
14.852,-0.057
14.854,-0.056
14.856,-0.055
14.858,-0.054
14.860,-0.053
14.862,-0.053
14.864,-0.054
14.866,-0.055
14.868,-0.056
14.870,-0.056
14.872,-0.055
14.874,-0.054
14.876,-0.053
14.878,-0.052
14.880,-0.051
14.882,-0.049
14.884,-0.046
14.886,-0.042
14.888,-0.038
14.890,-0.033
14.892,-0.030
14.894,-0.028
14.896,-0.027
14.898,-0.027
14.900,-0.026
14.902,-0.026
14.904,-0.024
14.906,-0.022
14.908,-0.019
14.910,-0.015
14.912,-0.010
14.914,-0.005
14.916,0.000
14.918,0.004
14.920,0.007
14.922,0.010
14.924,0.013
14.926,0.016
14.928,0.021
14.930,0.026
14.932,0.032
14.934,0.036
14.936,0.039
14.938,0.039
14.940,0.037
14.942,0.032
14.944,0.026
14.946,0.019
14.948,0.012
14.950,0.003
14.952,-0.007
14.954,-0.019
14.956,-0.030
14.958,-0.041
14.960,-0.051
14.962,-0.058
14.964,-0.063
14.966,-0.065
14.968,-0.065
14.970,-0.065
14.972,-0.065
14.974,-0.066
14.976,-0.068
14.978,-0.071
14.980,-0.074
14.982,-0.076
14.984,-0.077
14.986,-0.076
14.988,-0.074
14.990,-0.071
14.992,-0.068
14.994,-0.067
14.996,-0.068
14.998,-0.071
15.000,-0.076
15.002,-0.081
15.004,-0.085
15.006,-0.086
15.008,-0.084
15.010,-0.079
15.012,-0.073
15.014,-0.067
15.016,-0.064
15.018,-0.066
15.020,-0.072
15.022,-0.082
15.024,-0.093
15.026,-0.105
15.028,-0.113
15.030,-0.117
15.032,-0.114
15.034,-0.103
15.036,-0.080
15.038,-0.044
15.040,0.008
15.042,0.079
15.044,0.167
15.046,0.269
15.048,0.380
15.050,0.489
15.052,0.588
15.054,0.668
15.056,0.720
15.058,0.740
15.060,0.721
15.062,0.659
15.064,0.553
15.066,0.407
15.068,0.231
15.070,0.045
15.072,-0.132
15.074,-0.281
15.076,-0.387
15.078,-0.447
15.080,-0.466
15.082,-0.455
15.084,-0.426
15.086,-0.392
15.088,-0.360
15.090,-0.332
15.092,-0.310
15.094,-0.292
15.096,-0.276
15.098,-0.261
15.100,-0.243
15.102,-0.223
15.104,-0.199
15.106,-0.172
15.108,-0.142
15.110,-0.114
15.112,-0.090
15.114,-0.072
15.116,-0.062
15.118,-0.060
15.120,-0.062
15.122,-0.067
15.124,-0.070
15.126,-0.070
15.128,-0.065
15.130,-0.056
15.132,-0.046
15.134,-0.038
15.136,-0.032
15.138,-0.031
15.140,-0.034
15.142,-0.037
15.144,-0.040
15.146,-0.041
15.148,-0.039
15.150,-0.034
15.152,-0.029
15.154,-0.024
15.156,-0.021
15.158,-0.020
15.160,-0.020
15.162,-0.021
15.164,-0.021
15.166,-0.020
15.168,-0.018
15.170,-0.015
15.172,-0.011
15.174,-0.007
15.176,-0.003
15.178,-0.001
15.180,-0.001
15.182,-0.002
15.184,-0.005
15.186,-0.007
15.188,-0.008
15.190,-0.007
15.192,-0.006
15.194,-0.003
15.196,-0.001
15.198,0.002
15.200,0.004
15.202,0.006
15.204,0.009
15.206,0.012
15.208,0.015
15.210,0.017
15.212,0.019
15.214,0.020
15.216,0.021
15.218,0.023
15.220,0.024
15.222,0.027
15.224,0.030
15.226,0.033
15.228,0.036
15.230,0.040
15.232,0.043
15.234,0.046
15.236,0.049
15.238,0.051
15.240,0.054
15.242,0.056
15.244,0.059
15.246,0.063
15.248,0.068
15.250,0.073
15.252,0.078
15.254,0.083
15.256,0.086
15.258,0.088
15.260,0.090
15.262,0.092
15.264,0.096
15.266,0.101
15.268,0.108
15.270,0.117
15.272,0.125
15.274,0.133
15.276,0.140
15.278,0.146
15.280,0.153
15.282,0.159
15.284,0.166
15.286,0.173
15.288,0.180
15.290,0.187
15.292,0.193
15.294,0.200
15.296,0.207
15.298,0.213
15.300,0.219
15.302,0.224
15.304,0.230
15.306,0.235
15.308,0.241
15.310,0.246
15.312,0.252
15.314,0.257
15.316,0.261
15.318,0.266
15.320,0.269
15.322,0.272
15.324,0.272
15.326,0.270
15.328,0.266
15.330,0.259
15.332,0.250
15.334,0.240
15.336,0.229
15.338,0.217
15.340,0.205
15.342,0.192
15.344,0.179
15.346,0.165
15.348,0.151
15.350,0.138
15.352,0.124
15.354,0.111
15.356,0.099
15.358,0.088
15.360,0.076
15.362,0.065
15.364,0.053
15.366,0.041
15.368,0.030
15.370,0.020
15.372,0.011
15.374,0.004
15.376,-0.001
15.378,-0.006
15.380,-0.010
15.382,-0.015
15.384,-0.020
15.386,-0.026
15.388,-0.032
15.390,-0.036
15.392,-0.039
15.394,-0.041
15.396,-0.041
15.398,-0.041
15.400,-0.042
15.402,-0.044
15.404,-0.047
15.406,-0.051
15.408,-0.055
15.410,-0.058
15.412,-0.061
15.414,-0.062
15.416,-0.063
15.418,-0.063
15.420,-0.063
15.422,-0.064
15.424,-0.064
15.426,-0.064
15.428,-0.063
15.430,-0.063
15.432,-0.064
15.434,-0.065
15.436,-0.067
15.438,-0.068
15.440,-0.069
15.442,-0.069
15.444,-0.068
15.446,-0.066
15.448,-0.064
15.450,-0.063
15.452,-0.063
15.454,-0.063
15.456,-0.063
15.458,-0.063
15.460,-0.062
15.462,-0.060
15.464,-0.058
15.466,-0.055
15.468,-0.053
15.470,-0.053
15.472,-0.055
15.474,-0.058
15.476,-0.061
15.478,-0.065
15.480,-0.066
15.482,-0.066
15.484,-0.064
15.486,-0.061
15.488,-0.057
15.490,-0.054
15.492,-0.053
15.494,-0.052
15.496,-0.053
15.498,-0.054
15.500,-0.056
15.502,-0.059
15.504,-0.062
15.506,-0.064
15.508,-0.066
15.510,-0.065
15.512,-0.064
15.514,-0.061
15.516,-0.058
15.518,-0.055
15.520,-0.053
15.522,-0.052
15.524,-0.052
15.526,-0.052
15.528,-0.052
15.530,-0.052
15.532,-0.052
15.534,-0.051
15.536,-0.050
15.538,-0.049
15.540,-0.049
15.542,-0.051
15.544,-0.052
15.546,-0.054
15.548,-0.056
15.550,-0.056
15.552,-0.056
15.554,-0.056
15.556,-0.057
15.558,-0.057
15.560,-0.057
15.562,-0.057
15.564,-0.057
15.566,-0.057
15.568,-0.056
15.570,-0.056
15.572,-0.056
15.574,-0.057
15.576,-0.058
15.578,-0.058
15.580,-0.059
15.582,-0.059
15.584,-0.060
15.586,-0.060
15.588,-0.060
15.590,-0.060
15.592,-0.059
15.594,-0.058
15.596,-0.058
15.598,-0.058
15.600,-0.058
15.602,-0.058
15.604,-0.059
15.606,-0.059
15.608,-0.059
15.610,-0.059
15.612,-0.059
15.614,-0.060
15.616,-0.060
15.618,-0.062
15.620,-0.063
15.622,-0.064
15.624,-0.065
15.626,-0.065
15.628,-0.064
15.630,-0.064
15.632,-0.063
15.634,-0.062
15.636,-0.061
15.638,-0.059
15.640,-0.056
15.642,-0.054
15.644,-0.051
15.646,-0.048
15.648,-0.046
15.650,-0.045
15.652,-0.045
15.654,-0.045
15.656,-0.045
15.658,-0.045
15.660,-0.044
15.662,-0.042
15.664,-0.040
15.666,-0.037
15.668,-0.033
15.670,-0.029
15.672,-0.024
15.674,-0.019
15.676,-0.013
15.678,-0.007
15.680,-0.002
15.682,0.004
15.684,0.008
15.686,0.012
15.688,0.014
15.690,0.015
15.692,0.017
15.694,0.018
15.696,0.021
15.698,0.026
15.700,0.031
15.702,0.035
15.704,0.038
15.706,0.039
15.708,0.038
15.710,0.034
15.712,0.030
15.714,0.025
15.716,0.020
15.718,0.015
15.720,0.008
15.722,-0.001
15.724,-0.013
15.726,-0.025
15.728,-0.039
15.730,-0.052
15.732,-0.063
15.734,-0.072
15.736,-0.077
15.738,-0.079
15.740,-0.079
15.742,-0.078
15.744,-0.077
15.746,-0.076
15.748,-0.078
15.750,-0.082
15.752,-0.086
15.754,-0.091
15.756,-0.095
15.758,-0.096
15.760,-0.094
15.762,-0.090
15.764,-0.086
15.766,-0.084
15.768,-0.084
15.770,-0.088
15.772,-0.093
15.774,-0.098
15.776,-0.101
15.778,-0.101
15.780,-0.096
15.782,-0.089
15.784,-0.083
15.786,-0.078
15.788,-0.078
15.790,-0.082
15.792,-0.092
15.794,-0.104
15.796,-0.118
15.798,-0.131
15.800,-0.141
15.802,-0.144
15.804,-0.139
15.806,-0.123
15.808,-0.095
15.810,-0.051
15.812,0.010
15.814,0.089
15.816,0.184
15.818,0.291
15.820,0.403
15.822,0.510
15.824,0.604
15.826,0.676
15.828,0.721
15.830,0.732
15.832,0.702
15.834,0.627
15.836,0.507
15.838,0.349
15.840,0.165
15.842,-0.024
15.844,-0.198
15.846,-0.338
15.848,-0.434
15.850,-0.484
15.852,-0.494
15.854,-0.478
15.856,-0.447
15.858,-0.411
15.860,-0.376
15.862,-0.346
15.864,-0.321
15.866,-0.300
15.868,-0.281
15.870,-0.264
15.872,-0.245
15.874,-0.224
15.876,-0.200
15.878,-0.172
15.880,-0.143
15.882,-0.115
15.884,-0.091
15.886,-0.073
15.888,-0.063
15.890,-0.060
15.892,-0.062
15.894,-0.066
15.896,-0.069
15.898,-0.069
15.900,-0.066
15.902,-0.060
15.904,-0.053
15.906,-0.047
15.908,-0.044
15.910,-0.043
15.912,-0.043
15.914,-0.044
15.916,-0.044
15.918,-0.042
15.920,-0.038
15.922,-0.034
15.924,-0.030
15.926,-0.027
15.928,-0.027
15.930,-0.028
15.932,-0.030
15.934,-0.031
15.936,-0.030
15.938,-0.027
15.940,-0.023
15.942,-0.019
15.944,-0.015
15.946,-0.013
15.948,-0.012
15.950,-0.013
15.952,-0.014
15.954,-0.015
15.956,-0.015
15.958,-0.014
15.960,-0.011
15.962,-0.008
15.964,-0.004
15.966,-0.001
15.968,0.001
15.970,0.002
15.972,0.003
15.974,0.005
15.976,0.008
15.978,0.012
15.980,0.017
15.982,0.022
15.984,0.026
15.986,0.027
15.988,0.027
15.990,0.026
15.992,0.025
15.994,0.025
15.996,0.026
15.998,0.029
16.000,0.033
16.002,0.037
16.004,0.042
16.006,0.046
16.008,0.049
16.010,0.053
16.012,0.056
16.014,0.058
16.016,0.061
16.018,0.064
16.020,0.067
16.022,0.071
16.024,0.077
16.026,0.084
16.028,0.091
16.030,0.098
16.032,0.104
16.034,0.108
16.036,0.111
16.038,0.113
16.040,0.115
16.042,0.119
16.044,0.125
16.046,0.133
16.048,0.142
16.050,0.151
16.052,0.158
16.054,0.165
16.056,0.170
16.058,0.176
16.060,0.182
16.062,0.190
16.064,0.199
16.066,0.208
16.068,0.217
16.070,0.226
16.072,0.234
16.074,0.241
16.076,0.246
16.078,0.250
16.080,0.252
16.082,0.255
16.084,0.257
16.086,0.260
16.088,0.264
16.090,0.268
16.092,0.273
16.094,0.276
16.096,0.278
16.098,0.278
16.100,0.274
16.102,0.268
16.104,0.259
16.106,0.248
16.108,0.235
16.110,0.222
16.112,0.208
16.114,0.195
16.116,0.182
16.118,0.170
16.120,0.158
16.122,0.145
16.124,0.131
16.126,0.118
16.128,0.103
16.130,0.089
16.132,0.075
16.134,0.061
16.136,0.048
16.138,0.037
16.140,0.026
16.142,0.017
16.144,0.009
16.146,0.002
16.148,-0.004
16.150,-0.009
16.152,-0.013
16.154,-0.017
16.156,-0.020
16.158,-0.024
16.160,-0.027
16.162,-0.031
16.164,-0.035
16.166,-0.039
16.168,-0.044
16.170,-0.048
16.172,-0.051
16.174,-0.052
16.176,-0.053
16.178,-0.052
16.180,-0.050
16.182,-0.050
16.184,-0.051
16.186,-0.053
16.188,-0.056
16.190,-0.058
16.192,-0.060
16.194,-0.060
16.196,-0.059
16.198,-0.058
16.200,-0.055
16.202,-0.052
16.204,-0.049
16.206,-0.046
16.208,-0.044
16.210,-0.043
16.212,-0.044
16.214,-0.047
16.216,-0.051
16.218,-0.056
16.220,-0.060
16.222,-0.062
16.224,-0.061
16.226,-0.059
16.228,-0.056
16.230,-0.053
16.232,-0.051
16.234,-0.051
16.236,-0.051
16.238,-0.052
16.240,-0.053
16.242,-0.054
16.244,-0.054
16.246,-0.053
16.248,-0.052
16.250,-0.051
16.252,-0.049
16.254,-0.047
16.256,-0.046
16.258,-0.045
16.260,-0.045
16.262,-0.047
16.264,-0.048
16.266,-0.050
16.268,-0.051
16.270,-0.051
16.272,-0.050
16.274,-0.049
16.276,-0.047
16.278,-0.045
16.280,-0.044
16.282,-0.044
16.284,-0.045
16.286,-0.046
16.288,-0.046
16.290,-0.046
16.292,-0.045
16.294,-0.044
16.296,-0.043
16.298,-0.043
16.300,-0.043
16.302,-0.044
16.304,-0.046
16.306,-0.048
16.308,-0.049
16.310,-0.050
16.312,-0.050
16.314,-0.049
16.316,-0.047
16.318,-0.045
16.320,-0.044
16.322,-0.043
16.324,-0.044
16.326,-0.046
16.328,-0.048
16.330,-0.051
16.332,-0.053
16.334,-0.054
16.336,-0.055
16.338,-0.054
16.340,-0.052
16.342,-0.050
16.344,-0.048
16.346,-0.047
16.348,-0.047
16.350,-0.049
16.352,-0.053
16.354,-0.056
16.356,-0.059
16.358,-0.060
16.360,-0.060
16.362,-0.059
16.364,-0.059
16.366,-0.060
16.368,-0.061
16.370,-0.062
16.372,-0.062
16.374,-0.062
16.376,-0.061
16.378,-0.058
16.380,-0.056
16.382,-0.054
16.384,-0.053
16.386,-0.053
16.388,-0.052
16.390,-0.052
16.392,-0.051
16.394,-0.051
16.396,-0.050
16.398,-0.049
16.400,-0.048
16.402,-0.047
16.404,-0.044
16.406,-0.039
16.408,-0.034
16.410,-0.028
16.412,-0.024
16.414,-0.022
16.416,-0.022
16.418,-0.022
16.420,-0.023
16.422,-0.022
16.424,-0.018
16.426,-0.012
16.428,-0.004
16.430,0.004
16.432,0.011
16.434,0.016
16.436,0.019
16.438,0.021
16.440,0.023
16.442,0.025
16.444,0.029
16.446,0.035
16.448,0.041
16.450,0.046
16.452,0.050
16.454,0.051
16.456,0.049
16.458,0.045
16.460,0.039
16.462,0.033
16.464,0.027
16.466,0.019
16.468,0.011
16.470,0.002
16.472,-0.009
16.474,-0.020
16.476,-0.031
16.478,-0.041
16.480,-0.051
16.482,-0.060
16.484,-0.067
16.486,-0.072
16.488,-0.075
16.490,-0.076
16.492,-0.076
16.494,-0.076
16.496,-0.078
16.498,-0.080
16.500,-0.083
16.502,-0.086
16.504,-0.088
16.506,-0.089
16.508,-0.087
16.510,-0.084
16.512,-0.081
16.514,-0.077
16.516,-0.075
16.518,-0.075
16.520,-0.077
16.522,-0.080
16.524,-0.084
16.526,-0.087
16.528,-0.089
16.530,-0.088
16.532,-0.085
16.534,-0.082
16.536,-0.080
16.538,-0.081
16.540,-0.086
16.542,-0.094
16.544,-0.105
16.546,-0.116
16.548,-0.124
16.550,-0.128
16.552,-0.125
16.554,-0.113
16.556,-0.090
16.558,-0.053
16.560,0.001
16.562,0.073
16.564,0.163
16.566,0.267
16.568,0.378
16.570,0.489
16.572,0.589
16.574,0.670
16.576,0.722
16.578,0.739
16.580,0.713
16.582,0.642
16.584,0.525
16.586,0.369
16.588,0.187
16.590,-0.000
16.592,-0.174
16.594,-0.315
16.596,-0.414
16.598,-0.467
16.600,-0.481
16.602,-0.467
16.604,-0.437
16.606,-0.402
16.608,-0.369
16.610,-0.341
16.612,-0.319
16.614,-0.302
16.616,-0.289
16.618,-0.278
16.620,-0.265
16.622,-0.248
16.624,-0.225
16.626,-0.196
16.628,-0.162
16.630,-0.129
16.632,-0.099
16.634,-0.077
16.636,-0.065
16.638,-0.061
16.640,-0.062
16.642,-0.065
16.644,-0.065
16.646,-0.063
16.648,-0.057
16.650,-0.049
16.652,-0.042
16.654,-0.038
16.656,-0.036
16.658,-0.037
16.660,-0.039
16.662,-0.040
16.664,-0.039
16.666,-0.036
16.668,-0.031
16.670,-0.027
16.672,-0.023
16.674,-0.021
16.676,-0.021
16.678,-0.021
16.680,-0.022
16.682,-0.021
16.684,-0.019
16.686,-0.017
16.688,-0.014
16.690,-0.011
16.692,-0.008
16.694,-0.006
16.696,-0.004
16.698,-0.003
16.700,-0.003
16.702,-0.004
16.704,-0.005
16.706,-0.006
16.708,-0.006
16.710,-0.004
16.712,-0.002
16.714,0.002
16.716,0.005
16.718,0.008
16.720,0.010
16.722,0.011
16.724,0.012
16.726,0.013
16.728,0.014
16.730,0.015
16.732,0.016
16.734,0.018
16.736,0.019
16.738,0.021
16.740,0.023
16.742,0.025
16.744,0.027
16.746,0.030
16.748,0.033
16.750,0.036
16.752,0.039
16.754,0.042
16.756,0.046
16.758,0.049
16.760,0.053
16.762,0.057
16.764,0.061
16.766,0.065
16.768,0.069
16.770,0.073
16.772,0.078
16.774,0.082
16.776,0.086
16.778,0.091
16.780,0.096
16.782,0.101
16.784,0.106
16.786,0.112
16.788,0.117
16.790,0.124
16.792,0.130
16.794,0.137
16.796,0.144
16.798,0.151
16.800,0.158
16.802,0.165
16.804,0.170
16.806,0.176
16.808,0.182
16.810,0.189
16.812,0.197
16.814,0.206
16.816,0.215
16.818,0.224
16.820,0.231
16.822,0.238
16.824,0.243
16.826,0.247
16.828,0.251
16.830,0.256
16.832,0.261
16.834,0.266
16.836,0.270
16.838,0.273
16.840,0.275
16.842,0.275
16.844,0.274
16.846,0.271
16.848,0.267
16.850,0.262
16.852,0.255
16.854,0.247
16.856,0.236
16.858,0.224
16.860,0.210
16.862,0.197
16.864,0.185
16.866,0.172
16.868,0.160
16.870,0.147
16.872,0.132
16.874,0.116
16.876,0.099
16.878,0.082
16.880,0.067
16.882,0.053
16.884,0.042
16.886,0.033
16.888,0.025
16.890,0.018
16.892,0.012
16.894,0.005
16.896,-0.001
16.898,-0.007
16.900,-0.014
16.902,-0.022
16.904,-0.031
16.906,-0.039
16.908,-0.046
16.910,-0.051
16.912,-0.053
16.914,-0.053
16.916,-0.052
16.918,-0.051
16.920,-0.049
16.922,-0.049
16.924,-0.051
16.926,-0.053
16.928,-0.055
16.930,-0.058
16.932,-0.061
16.934,-0.063
16.936,-0.066
16.938,-0.068
16.940,-0.070
16.942,-0.071
16.944,-0.072
16.946,-0.073
16.948,-0.073
16.950,-0.073
16.952,-0.072
16.954,-0.071
16.956,-0.070
16.958,-0.069
16.960,-0.067
16.962,-0.066
16.964,-0.064
16.966,-0.064
16.968,-0.065
16.970,-0.066
16.972,-0.068
16.974,-0.070
16.976,-0.071
16.978,-0.071
16.980,-0.069
16.982,-0.066
16.984,-0.063
16.986,-0.059
16.988,-0.057
16.990,-0.056
16.992,-0.056
16.994,-0.057
16.996,-0.058
16.998,-0.060
17.000,-0.060
17.002,-0.060
17.004,-0.060
17.006,-0.059
17.008,-0.059
17.010,-0.059
17.012,-0.059
17.014,-0.058
17.016,-0.057
17.018,-0.054
17.020,-0.052
17.022,-0.050
17.024,-0.050
17.026,-0.050
17.028,-0.051
17.030,-0.052
17.032,-0.053
17.034,-0.054
17.036,-0.055
17.038,-0.057
17.040,-0.057
17.042,-0.058
17.044,-0.058
17.046,-0.057
17.048,-0.055
17.050,-0.054
17.052,-0.053
17.054,-0.053
17.056,-0.055
17.058,-0.056
17.060,-0.058
17.062,-0.060
17.064,-0.061
17.066,-0.063
17.068,-0.064
17.070,-0.065
17.072,-0.066
17.074,-0.066
17.076,-0.066
17.078,-0.066
17.080,-0.065
17.082,-0.063
17.084,-0.061
17.086,-0.060
17.088,-0.059
17.090,-0.059
17.092,-0.060
17.094,-0.061
17.096,-0.063
17.098,-0.064
17.100,-0.063
17.102,-0.062
17.104,-0.059
17.106,-0.054
17.108,-0.049
17.110,-0.043
17.112,-0.038
17.114,-0.034
17.116,-0.032
17.118,-0.032
17.120,-0.033
17.122,-0.036
17.124,-0.038
17.126,-0.040
17.128,-0.039
17.130,-0.035
17.132,-0.029
17.134,-0.022
17.136,-0.015
17.138,-0.009
17.140,-0.005
17.142,-0.002
17.144,-0.001
17.146,0.001
17.148,0.003
17.150,0.007
17.152,0.012
17.154,0.019
17.156,0.025
17.158,0.029
17.160,0.031
17.162,0.030
17.164,0.026
17.166,0.019
17.168,0.012
17.170,0.003
17.172,-0.005
17.174,-0.014
17.176,-0.023
17.178,-0.033
17.180,-0.043
17.182,-0.052
17.184,-0.059
17.186,-0.065
17.188,-0.069
17.190,-0.072
17.192,-0.074
17.194,-0.075
17.196,-0.076
17.198,-0.078
17.200,-0.080
17.202,-0.081
17.204,-0.082
17.206,-0.082
17.208,-0.080
17.210,-0.077
17.212,-0.075
17.214,-0.074
17.216,-0.075
17.218,-0.078
17.220,-0.082
17.222,-0.086
17.224,-0.088
17.226,-0.088
17.228,-0.086
17.230,-0.082
17.232,-0.078
17.234,-0.076
17.236,-0.076
17.238,-0.078
17.240,-0.082
17.242,-0.088
17.244,-0.095
17.246,-0.103
17.248,-0.111
17.250,-0.117
17.252,-0.121
17.254,-0.119
17.256,-0.109
17.258,-0.087
17.260,-0.051
17.262,0.002
17.264,0.073
17.266,0.161
17.268,0.263
17.270,0.373
17.272,0.483
17.274,0.583
17.276,0.663
17.278,0.716
17.280,0.734
17.282,0.710
17.284,0.639
17.286,0.524
17.288,0.370
17.290,0.192
17.292,0.007
17.294,-0.162
17.296,-0.300
17.298,-0.395
17.300,-0.446
17.302,-0.460
17.304,-0.446
17.306,-0.418
17.308,-0.385
17.310,-0.354
17.312,-0.328
17.314,-0.309
17.316,-0.295
17.318,-0.285
17.320,-0.275
17.322,-0.264
17.324,-0.248
17.326,-0.226
17.328,-0.198
17.330,-0.164
17.332,-0.130
17.334,-0.099
17.336,-0.075
17.338,-0.060
17.340,-0.055
17.342,-0.056
17.344,-0.060
17.346,-0.063
17.348,-0.063
17.350,-0.059
17.352,-0.052
17.354,-0.044
17.356,-0.038
17.358,-0.034
17.360,-0.034
17.362,-0.036
17.364,-0.038
17.366,-0.040
17.368,-0.040
17.370,-0.038
17.372,-0.036
17.374,-0.033
17.376,-0.031
17.378,-0.030
17.380,-0.030
17.382,-0.030
17.384,-0.030
17.386,-0.029
17.388,-0.027
17.390,-0.024
17.392,-0.019
17.394,-0.014
17.396,-0.011
17.398,-0.008
17.400,-0.007
17.402,-0.008
17.404,-0.010
17.406,-0.012
17.408,-0.013
17.410,-0.012
17.412,-0.010
17.414,-0.007
17.416,-0.004
17.418,-0.001
17.420,0.001
17.422,0.003
17.424,0.004
17.426,0.005
17.428,0.007
17.430,0.009
17.432,0.011
17.434,0.013
17.436,0.014
17.438,0.015
17.440,0.015
17.442,0.015
17.444,0.015
17.446,0.017
17.448,0.019
17.450,0.021
17.452,0.024
17.454,0.028
17.456,0.031
17.458,0.036
17.460,0.042
17.462,0.048
17.464,0.054
17.466,0.059
17.468,0.063
17.470,0.066
17.472,0.068
17.474,0.070
17.476,0.072
17.478,0.076
17.480,0.080
17.482,0.086
17.484,0.093
17.486,0.100
17.488,0.108
17.490,0.116
17.492,0.124
17.494,0.132
17.496,0.140
17.498,0.147
17.500,0.152
17.502,0.157
17.504,0.161
17.506,0.166
17.508,0.171
17.510,0.177
17.512,0.183
17.514,0.190
17.516,0.198
17.518,0.205
17.520,0.213
17.522,0.221
17.524,0.228
17.526,0.235
17.528,0.241
17.530,0.247
17.532,0.251
17.534,0.255
17.536,0.258
17.538,0.260
17.540,0.261
17.542,0.262
17.544,0.262
17.546,0.261
17.548,0.259
17.550,0.255
17.552,0.248
17.554,0.240
17.556,0.230
17.558,0.219
17.560,0.207
17.562,0.194
17.564,0.180
17.566,0.166
17.568,0.151
17.570,0.136
17.572,0.122
17.574,0.109
17.576,0.096
17.578,0.082
17.580,0.069
17.582,0.054
17.584,0.039
17.586,0.026
17.588,0.013
17.590,0.003
17.592,-0.006
17.594,-0.013
17.596,-0.019
17.598,-0.023
17.600,-0.028
17.602,-0.031
17.604,-0.034
17.606,-0.036
17.608,-0.039
17.610,-0.042
17.612,-0.045
17.614,-0.049
17.616,-0.051
17.618,-0.053
17.620,-0.054
17.622,-0.054
17.624,-0.054
17.626,-0.055
17.628,-0.056
17.630,-0.059
17.632,-0.062
17.634,-0.064
17.636,-0.067
17.638,-0.068
17.640,-0.069
17.642,-0.068
17.644,-0.067
17.646,-0.065
17.648,-0.063
17.650,-0.063
17.652,-0.063
17.654,-0.065
17.656,-0.067
17.658,-0.069
17.660,-0.069
17.662,-0.068
17.664,-0.066
17.666,-0.064
17.668,-0.063
17.670,-0.062
17.672,-0.062
17.674,-0.062
17.676,-0.062
17.678,-0.062
17.680,-0.062
17.682,-0.062
17.684,-0.063
17.686,-0.063
17.688,-0.063
17.690,-0.062
17.692,-0.061
17.694,-0.060
17.696,-0.060
17.698,-0.061
17.700,-0.062
17.702,-0.063
17.704,-0.064
17.706,-0.063
17.708,-0.062
17.710,-0.060
17.712,-0.058
17.714,-0.057
17.716,-0.056
17.718,-0.055
17.720,-0.056
17.722,-0.056
17.724,-0.057
17.726,-0.057
17.728,-0.058
17.730,-0.057
17.732,-0.056
17.734,-0.054
17.736,-0.051
17.738,-0.048
17.740,-0.045
17.742,-0.044
17.744,-0.044
17.746,-0.046
17.748,-0.049
17.750,-0.051
17.752,-0.052
17.754,-0.052
17.756,-0.051
17.758,-0.050
17.760,-0.049
17.762,-0.050
17.764,-0.052
17.766,-0.055
17.768,-0.058
17.770,-0.060
17.772,-0.060
17.774,-0.059
17.776,-0.057
17.778,-0.055
17.780,-0.053
17.782,-0.052
17.784,-0.051
17.786,-0.051
17.788,-0.052
17.790,-0.053
17.792,-0.054
17.794,-0.056
17.796,-0.058
17.798,-0.061
17.800,-0.063
17.802,-0.063
17.804,-0.062
17.806,-0.059
17.808,-0.057
17.810,-0.054
17.812,-0.053
17.814,-0.052
17.816,-0.052
17.818,-0.052
17.820,-0.052
17.822,-0.050
17.824,-0.047
17.826,-0.043
17.828,-0.039
17.830,-0.037
17.832,-0.036
17.834,-0.037
17.836,-0.040
17.838,-0.043
17.840,-0.046
17.842,-0.048
17.844,-0.047
17.846,-0.045
17.848,-0.040
17.850,-0.033
17.852,-0.025
17.854,-0.017
17.856,-0.008
17.858,-0.000
17.860,0.007
17.862,0.012
17.864,0.017
17.866,0.021
17.868,0.025
17.870,0.029
17.872,0.033
17.874,0.036
17.876,0.037
17.878,0.037
17.880,0.034
17.882,0.029
17.884,0.021
17.886,0.011
17.888,0.000
17.890,-0.011
17.892,-0.022
17.894,-0.033
17.896,-0.042
17.898,-0.050
17.900,-0.056
17.902,-0.061
17.904,-0.063
17.906,-0.064
17.908,-0.065
17.910,-0.065
17.912,-0.067
17.914,-0.069
17.916,-0.073
17.918,-0.077
17.920,-0.080
17.922,-0.081
17.924,-0.080
17.926,-0.076
17.928,-0.072
17.930,-0.068
17.932,-0.067
17.934,-0.068
17.936,-0.072
17.938,-0.078
17.940,-0.082
17.942,-0.084
17.944,-0.082
17.946,-0.077
17.948,-0.070
17.950,-0.064
17.952,-0.060
17.954,-0.061
17.956,-0.067
17.958,-0.077
17.960,-0.090
17.962,-0.104
17.964,-0.117
17.966,-0.126
17.968,-0.129
17.970,-0.124
17.972,-0.110
17.974,-0.085
17.976,-0.047
17.978,0.008
17.980,0.080
17.982,0.169
17.984,0.272
17.986,0.381
17.988,0.489
17.990,0.587
17.992,0.666
17.994,0.720
17.996,0.741
17.998,0.723
18.000,0.661
18.002,0.555
18.004,0.408
18.006,0.233
18.008,0.047
18.010,-0.129
18.012,-0.276
18.014,-0.382
18.016,-0.443
18.018,-0.464
18.020,-0.455
18.022,-0.429
18.024,-0.396
18.026,-0.363
18.028,-0.335
18.030,-0.311
18.032,-0.292
18.034,-0.276
18.036,-0.261
18.038,-0.245
18.040,-0.226
18.042,-0.202
18.044,-0.174
18.046,-0.143
18.048,-0.113
18.050,-0.087
18.052,-0.068
18.054,-0.058
18.056,-0.055
18.058,-0.056
18.060,-0.060
18.062,-0.062
18.064,-0.061
18.066,-0.056
18.068,-0.048
18.070,-0.040
18.072,-0.034
18.074,-0.031
18.076,-0.031
18.078,-0.035
18.080,-0.040
18.082,-0.043
18.084,-0.044
18.086,-0.041
18.088,-0.035
18.090,-0.029
18.092,-0.023
18.094,-0.018
18.096,-0.016
18.098,-0.016
18.100,-0.016
18.102,-0.016
18.104,-0.016
18.106,-0.015
18.108,-0.014
18.110,-0.012
18.112,-0.010
18.114,-0.008
18.116,-0.006
18.118,-0.004
18.120,-0.003
18.122,-0.002
18.124,-0.001
18.126,-0.001
18.128,-0.001
18.130,0.000
18.132,0.002
18.134,0.005
18.136,0.008
18.138,0.011
18.140,0.013
18.142,0.015
18.144,0.016
18.146,0.017
18.148,0.018
18.150,0.018
18.152,0.019
18.154,0.019
18.156,0.019
18.158,0.019
18.160,0.019
18.162,0.021
18.164,0.023
18.166,0.027
18.168,0.032
18.170,0.037
18.172,0.042
18.174,0.047
18.176,0.052
18.178,0.055
18.180,0.058
18.182,0.061
18.184,0.064
18.186,0.067
18.188,0.071
18.190,0.075
18.192,0.080
18.194,0.085
18.196,0.091
18.198,0.097
18.200,0.103
18.202,0.109
18.204,0.116
18.206,0.123
18.208,0.130
18.210,0.136
18.212,0.142
18.214,0.146
18.216,0.150
18.218,0.153
18.220,0.158
18.222,0.164
18.224,0.171
18.226,0.180
18.228,0.189
18.230,0.198
18.232,0.206
18.234,0.213
18.236,0.220
18.238,0.226
18.240,0.232
18.242,0.238
18.244,0.244
18.246,0.250
18.248,0.256
18.250,0.260
18.252,0.264
18.254,0.266
18.256,0.268
18.258,0.269
18.260,0.269
18.262,0.268
18.264,0.266
18.266,0.263
18.268,0.258
18.270,0.252
18.272,0.243
18.274,0.233
18.276,0.221
18.278,0.208
18.280,0.194
18.282,0.178
