'Elapsed time','EMG'
'seconds','mV'
0.000,-0.033
0.000,-0.035
0.001,-0.035
0.001,-0.030
0.001,-0.030
0.001,-0.033
0.002,-0.032
0.002,-0.033
0.002,-0.033
0.002,-0.037
0.003,-0.035
0.003,-0.042
0.003,-0.042
0.003,-0.038
0.004,-0.042
0.004,-0.047
0.004,-0.047
0.004,-0.052
0.004,-0.053
0.005,-0.058
0.005,-0.058
0.005,-0.063
0.005,-0.063
0.006,-0.060
0.006,-0.063
0.006,-0.060
0.006,-0.060
0.007,-0.058
0.007,-0.058
0.007,-0.057
0.007,-0.058
0.008,-0.057
0.008,-0.060
0.008,-0.055
0.009,-0.055
0.009,-0.050
0.009,-0.052
0.009,-0.042
0.009,-0.042
0.010,-0.037
0.010,-0.037
0.010,-0.032
0.011,-0.032
0.011,-0.025
0.011,-0.027
0.011,-0.018
0.011,-0.017
0.012,-0.008
0.012,-0.008
0.012,0.005
0.013,0.005
0.013,0.013
0.013,0.015
0.013,0.010
0.013,0.008
0.014,-0.018
0.014,-0.020
0.014,-0.045
0.015,-0.045
0.015,-0.057
0.015,-0.057
0.015,-0.055
0.015,-0.057
0.016,-0.050
0.016,-0.050
0.016,-0.045
0.017,-0.047
0.017,-0.048
0.017,-0.048
0.017,-0.053
0.018,-0.053
0.018,-0.060
0.018,-0.060
0.018,-0.078
0.018,-0.078
0.019,-0.108
0.019,-0.110
0.019,-0.088
0.019,-0.085
0.020,0.010
0.020,0.013
0.020,0.037
0.021,0.032
0.021,0.003
0.021,0.005
0.021,0.002
0.021,0.002
0.022,-0.005
0.022,-0.007
0.022,-0.002
0.022,-0.002
0.023,0.007
0.023,0.007
0.023,0.035
0.024,0.037
0.024,0.070
0.024,0.072
0.024,0.002
0.025,-0.028
0.025,0.265
0.025,0.322
0.025,0.033
0.025,0.302
0.026,-0.182
0.026,-0.197
0.026,-0.378
0.026,-0.382
0.027,-0.277
0.027,-0.270
0.027,-0.083
0.028,-0.077
0.028,0.027
0.028,0.030
0.028,0.062
0.029,0.060
0.029,0.020
0.029,0.018
0.029,-0.018
0.029,-0.020
0.030,-0.032
0.030,-0.030
0.030,-0.020
0.030,-0.018
0.031,-0.003
0.031,-0.003
0.031,0.007
0.032,0.007
0.032,0.015
0.032,0.013
0.032,0.022
0.033,0.022
0.033,0.033
0.033,0.033
0.033,0.052
0.034,0.052
0.034,0.083
0.034,0.085
0.034,0.138
0.035,0.140
0.035,0.195
0.035,0.232
0.035,0.130
0.035,0.113
0.036,-0.048
0.036,-0.018
0.036,0.180
0.036,0.145
0.037,0.105
0.037,0.107
0.037,0.115
0.037,0.108
0.038,0.065
0.038,0.063
0.038,0.002
0.038,0.000
0.039,-0.047
0.039,-0.048
0.039,-0.078
0.040,-0.080
0.040,-0.098
0.040,-0.098
0.040,-0.105
0.041,-0.103
0.041,-0.105
0.041,-0.105
0.041,-0.098
0.042,-0.100
0.042,-0.092
0.042,-0.093
0.042,-0.082
0.043,-0.080
0.043,-0.072
0.043,-0.072
0.043,-0.060
0.043,-0.058
0.044,-0.050
0.044,-0.050
0.044,-0.042
0.044,-0.042
0.045,-0.037
0.045,-0.038
0.045,-0.033
0.045,-0.033
0.046,-0.028
0.046,-0.033
0.046,-0.030
0.046,-0.030
0.047,-0.025
0.047,-0.025
0.047,-0.017
0.048,-0.017
0.048,-0.008
0.048,-0.008
0.048,0.002
0.049,0.002
0.049,0.003
0.049,0.005
0.049,0.002
0.050,0.003
0.050,0.002
0.050,0.000
0.050,0.005
0.051,0.003
0.051,0.007
0.051,0.003
0.051,0.007
0.051,0.005
0.052,0.002
0.052,0.003
0.052,0.000
0.052,0.000
0.053,-0.003
0.053,-0.005
0.053,-0.003
0.053,-0.007
0.054,-0.003
0.054,-0.003
0.054,-0.007
0.054,-0.007
0.055,-0.008
0.055,-0.007
0.055,-0.008
0.056,-0.008
0.056,-0.010
0.056,-0.008
0.056,-0.005
0.057,-0.005
0.057,0.002
0.057,0.002
0.057,0.008
0.058,0.008
0.058,0.013
0.058,0.013
0.058,0.020
0.059,0.020
0.059,0.023
0.059,0.023
0.059,0.030
0.059,0.028
0.060,0.040
0.060,0.040
0.060,0.050
0.060,0.048
0.061,0.057
0.061,0.057
0.061,0.053
0.061,0.055
0.062,0.048
0.062,0.048
0.062,0.037
0.062,0.037
0.063,0.028
0.063,0.028
0.063,0.025
0.064,0.028
0.064,0.030
0.064,0.028
0.064,0.015
0.065,0.013
0.065,-0.015
0.065,-0.015
0.065,-0.033
0.066,-0.032
0.066,-0.033
0.066,-0.033
0.066,-0.030
0.067,-0.033
0.067,-0.028
0.067,-0.032
0.067,-0.025
0.068,-0.027
0.068,-0.022
0.068,-0.023
0.068,-0.008
0.069,-0.008
0.069,0.005
0.069,0.007
0.069,0.022
0.070,0.022
0.070,0.015
0.070,0.020
0.070,0.003
0.070,0.002
0.071,-0.067
0.071,-0.067
0.071,0.037
0.071,0.038
0.072,-0.072
0.072,-0.048
0.072,0.018
0.072,0.020
0.073,0.042
0.073,0.042
0.073,0.050
0.073,0.052
0.074,0.057
0.074,0.055
0.074,0.043
0.074,0.042
0.075,0.028
0.075,0.027
0.075,0.015
0.075,0.015
0.076,0.005
0.076,0.007
0.076,0.003
0.076,0.003
0.077,0.007
0.077,0.007
0.077,0.012
0.077,0.010
0.078,0.002
0.078,0.002
0.078,-0.010
0.079,-0.010
0.079,-0.030
0.079,-0.030
0.079,-0.043
0.080,-0.043
0.080,-0.040
0.080,-0.040
0.080,-0.028
0.081,-0.027
0.081,-0.013
0.081,-0.013
0.081,0.002
0.082,0.003
0.082,0.020
0.082,0.020
0.082,0.037
0.083,0.037
0.083,0.040
0.083,0.037
0.083,0.032
0.084,0.032
0.084,0.023
0.084,0.023
0.084,0.017
0.085,0.017
0.085,0.013
0.085,0.013
0.085,0.010
0.086,0.012
0.086,0.008
0.086,0.008
0.086,0.010
0.086,0.008
0.087,0.017
0.087,0.015
0.087,0.020
0.087,0.020
0.088,0.025
0.088,0.025
0.088,0.027
0.088,0.028
0.089,0.032
0.089,0.030
0.089,0.032
0.089,0.028
0.090,0.033
0.090,0.032
0.090,0.037
0.090,0.037
0.091,0.042
0.091,0.042
0.091,0.045
0.091,0.043
0.092,0.038
0.092,0.040
0.092,0.032
0.092,0.032
0.093,0.020
0.093,0.020
0.093,0.007
0.093,0.007
0.094,-0.003
0.094,-0.003
0.094,-0.010
0.095,-0.008
0.095,-0.005
0.095,-0.008
0.095,-0.003
0.096,-0.005
0.096,-0.002
0.096,-0.007
0.096,-0.005
0.097,-0.007
0.097,-0.008
0.097,-0.008
0.097,-0.010
0.098,-0.010
0.098,-0.008
0.098,-0.008
0.098,-0.005
0.099,-0.005
0.099,-0.007
0.099,-0.007
0.099,-0.003
0.100,-0.005
0.100,-0.010
0.100,-0.008
0.100,-0.012
0.101,-0.013
0.101,-0.030
0.101,-0.030
0.101,-0.037
0.102,-0.037
0.102,-0.035
0.102,-0.033
0.102,-0.030
0.102,-0.030
0.103,-0.022
0.103,-0.022
0.103,-0.017
0.103,-0.017
0.104,-0.013
0.104,-0.012
0.104,0.002
0.104,0.002
0.105,0.008
0.105,0.007
0.105,-0.002
0.105,-0.002
0.106,-0.058
0.106,-0.062
0.106,-0.147
0.106,-0.150
0.107,-0.118
0.107,-0.113
0.107,-0.005
0.107,0.000
0.108,0.080
0.108,0.082
0.108,0.090
0.108,0.080
0.109,0.047
0.109,0.047
0.109,0.030
0.110,0.030
0.110,0.023
0.110,0.025
0.110,0.022
0.111,0.020
0.111,0.028
0.111,0.028
0.111,0.033
0.112,0.032
0.112,0.037
0.112,0.037
0.112,0.055
0.113,0.070
0.113,0.052
0.113,0.002
0.113,0.153
0.114,0.263
0.114,-0.025
0.114,0.218
0.114,-0.195
0.115,-0.212
0.115,-0.267
0.115,-0.265
0.115,-0.117
0.116,-0.113
0.116,-0.065
0.116,-0.063
0.116,-0.048
0.117,-0.048
0.117,-0.038
0.117,-0.038
0.117,-0.045
0.117,-0.045
0.118,-0.040
0.118,-0.045
0.118,-0.047
0.118,-0.045
0.119,-0.038
0.119,-0.038
0.119,-0.028
0.119,-0.030
0.120,-0.023
0.120,-0.023
0.120,-0.020
0.120,-0.020
0.121,-0.017
0.121,-0.018
0.121,-0.022
0.121,-0.022
0.122,-0.018
0.122,-0.018
0.122,-0.010
0.122,-0.008
0.123,-0.003
0.123,-0.002
0.123,0.008
0.123,0.008
0.124,0.022
0.124,0.022
0.124,0.027
0.124,0.027
0.125,0.013
0.125,0.013
0.125,-0.017
0.126,-0.018
0.126,-0.048
0.126,-0.048
0.126,-0.065
0.127,-0.067
0.127,-0.062
0.127,-0.060
0.127,-0.047
0.128,-0.047
0.128,-0.040
0.128,-0.040
0.128,-0.038
0.129,-0.040
0.129,-0.045
0.129,-0.043
0.129,-0.047
0.130,-0.047
0.130,-0.043
0.130,-0.042
0.130,-0.037
0.131,-0.037
0.131,-0.030
0.131,-0.030
0.131,-0.027
0.132,-0.027
0.132,-0.020
0.132,-0.020
0.132,-0.015
0.133,-0.017
0.133,-0.012
0.133,-0.012
0.133,-0.017
0.134,-0.017
0.134,-0.018
0.134,-0.017
0.134,-0.027
0.135,-0.027
0.135,-0.033
0.135,-0.033
0.135,-0.040
0.136,-0.040
0.136,-0.045
0.136,-0.043
0.136,-0.047
0.137,-0.047
0.137,-0.050
0.137,-0.050
0.137,-0.047
0.138,-0.047
0.138,-0.038
0.138,-0.038
0.138,-0.028
0.139,-0.028
0.139,-0.023
0.139,-0.023
0.139,-0.027
0.140,-0.023
0.140,-0.022
0.140,-0.023
0.140,-0.020
0.141,-0.022
0.141,-0.018
0.141,-0.018
0.141,-0.017
0.141,-0.018
0.142,-0.022
0.142,-0.022
0.142,-0.028
0.142,-0.025
0.143,-0.015
0.143,-0.013
0.143,-0.007
0.143,-0.005
0.144,0.000
0.144,0.000
0.144,0.007
0.144,0.007
0.145,0.018
0.145,0.017
0.145,0.032
0.145,0.033
0.146,0.052
0.146,0.053
0.146,0.082
0.146,0.083
0.147,0.128
0.147,0.132
0.147,0.175
0.147,0.195
0.148,0.063
0.148,0.050
0.148,-0.040
0.148,0.037
0.149,0.083
0.149,0.080
0.149,0.123
0.149,0.125
0.150,0.142
0.150,0.135
0.150,0.083
0.150,0.080
0.151,0.005
0.151,0.003
0.151,-0.052
0.151,-0.052
0.152,-0.080
0.152,-0.080
0.152,-0.100
0.152,-0.100
0.153,-0.107
0.153,-0.107
0.153,-0.110
0.153,-0.108
0.154,-0.102
0.154,-0.102
0.154,-0.095
0.154,-0.095
0.155,-0.083
0.155,-0.083
0.155,-0.073
0.155,-0.073
0.156,-0.058
0.156,-0.057
0.156,-0.033
0.157,-0.032
0.157,-0.017
0.157,-0.017
0.157,-0.025
0.158,-0.025
0.158,-0.033
0.158,-0.033
0.158,-0.038
0.159,-0.038
0.159,-0.043
0.159,-0.043
0.159,-0.038
0.160,-0.038
0.160,-0.038
0.160,-0.035
0.160,-0.037
0.161,-0.030
0.161,-0.030
0.161,-0.023
0.161,-0.025
0.162,-0.020
0.162,-0.020
0.162,-0.015
0.162,-0.015
0.163,-0.008
0.163,-0.010
0.163,-0.005
0.163,-0.007
0.164,-0.003
0.164,-0.005
0.164,-0.003
0.164,-0.005
0.165,-0.010
0.165,-0.007
0.165,-0.010
0.165,-0.007
0.166,-0.002
0.166,-0.003
0.166,0.002
0.166,0.002
0.167,0.000
0.167,0.002
0.167,0.008
0.167,0.008
0.168,0.015
0.168,0.015
0.168,0.020
0.168,0.020
0.169,0.030
0.169,0.030
0.169,0.038
0.169,0.038
0.170,0.048
0.170,0.050
0.170,0.065
0.170,0.067
0.171,0.122
0.171,0.148
0.171,-0.035
0.171,-0.057
0.172,-0.040
0.172,-0.038
0.172,-0.008
0.172,-0.007
0.172,0.007
0.173,0.007
0.173,0.012
0.173,0.010
0.173,0.012
0.174,0.012
0.174,0.007
0.174,0.007
0.174,0.010
0.175,0.010
0.175,0.017
0.175,0.018
0.175,0.022
0.176,0.022
0.176,0.018
0.176,0.023
0.176,0.027
0.177,0.025
0.177,0.028
0.177,0.027
0.177,0.030
0.178,0.030
0.178,0.038
0.178,0.038
0.178,0.050
0.179,0.050
0.179,0.058
0.179,0.060
0.179,0.063
0.180,0.062
0.180,0.057
0.180,0.058
0.180,0.053
0.181,0.055
0.181,0.047
0.181,0.047
0.181,0.043
0.182,0.045
0.182,0.037
0.182,0.037
0.182,0.032
0.183,0.030
0.183,0.022
0.183,0.022
0.183,0.028
0.184,0.028
0.184,0.032
0.184,0.030
0.184,0.033
0.185,0.030
0.185,0.033
0.185,0.033
0.185,0.038
0.186,0.038
0.186,0.047
0.186,0.047
0.186,0.053
0.187,0.055
0.187,0.063
0.187,0.065
0.188,0.078
0.188,0.080
0.188,0.075
0.188,0.077
0.189,0.085
0.189,0.085
0.189,0.075
0.189,0.073
0.190,0.055
0.190,0.055
0.190,0.032
0.190,0.030
0.191,0.017
0.191,0.015
0.191,-0.063
0.191,-0.078
0.192,-0.057
0.192,-0.055
0.192,-0.030
0.192,-0.030
0.193,0.013
0.193,0.015
0.193,0.080
0.193,0.080
0.194,0.097
0.194,0.098
0.194,0.080
0.194,0.078
0.195,0.045
0.195,0.043
0.195,0.025
0.195,0.023
0.196,0.017
0.196,0.017
0.196,0.013
0.196,0.015
0.197,0.000
0.197,-0.002
0.197,-0.018
0.197,-0.023
0.198,-0.002
0.198,0.002
0.198,0.097
0.198,0.100
0.199,0.150
0.199,0.152
0.199,0.168
0.199,0.167
0.200,0.097
0.200,0.352
0.200,0.072
0.200,0.067
0.201,0.335
0.201,0.137
0.201,-0.148
0.201,-0.205
0.202,-0.148
0.202,-0.145
0.202,-0.070
0.202,-0.067
0.203,-0.030
0.203,-0.028
0.203,-0.013
0.203,-0.013
0.203,-0.002
0.204,-0.002
0.204,0.007
0.204,0.007
0.204,0.003
0.205,0.005
0.205,-0.005
0.205,-0.007
0.205,-0.015
0.206,-0.015
0.206,-0.008
0.206,-0.010
0.206,-0.005
0.207,-0.005
0.207,-0.003
0.207,-0.003
0.207,-0.007
0.208,-0.007
0.208,-0.018
0.208,-0.020
0.208,-0.045
0.209,-0.045
0.209,-0.062
0.209,-0.062
0.209,-0.068
0.210,-0.068
0.210,-0.072
0.210,-0.070
0.210,-0.073
0.211,-0.073
0.211,-0.087
0.211,-0.087
0.211,-0.095
0.212,-0.095
0.212,-0.102
0.212,-0.102
0.212,-0.107
0.213,-0.107
0.213,-0.110
0.213,-0.108
0.213,-0.112
0.214,-0.113
0.214,-0.110
0.214,-0.108
0.214,-0.098
0.215,-0.097
0.215,-0.085
0.215,-0.085
0.215,-0.092
0.216,-0.092
0.216,-0.103
0.216,-0.103
0.216,-0.123
0.217,-0.125
0.217,-0.138
0.217,-0.138
0.217,-0.145
0.218,-0.143
0.218,-0.150
0.218,-0.150
0.218,-0.167
0.219,-0.168
0.219,-0.198
0.219,-0.200
0.220,-0.233
0.220,-0.233
0.220,-0.258
0.220,-0.260
0.221,-0.272
0.221,-0.273
0.221,-0.270
0.221,-0.272
0.222,-0.267
0.222,-0.270
0.222,-0.267
0.222,-0.267
0.223,-0.263
0.223,-0.265
0.223,-0.268
0.223,-0.268
0.224,-0.262
0.224,-0.262
0.224,-0.255
0.224,-0.257
0.225,-0.247
0.225,-0.248
0.225,-0.243
0.225,-0.243
0.226,-0.235
0.226,-0.235
0.226,-0.225
0.226,-0.225
0.227,-0.208
0.227,-0.208
0.227,-0.195
0.227,-0.193
0.228,-0.170
0.228,-0.168
0.228,-0.137
0.228,-0.137
0.229,-0.098
0.229,-0.098
0.229,-0.053
0.229,-0.052
0.230,-0.013
0.230,-0.013
0.230,0.007
0.230,0.007
0.231,0.013
0.231,0.013
0.231,0.022
0.231,0.018
0.232,0.023
0.232,0.023
0.232,0.028
0.232,0.028
0.233,0.035
0.233,0.033
0.233,0.042
0.233,0.042
0.234,0.048
0.234,0.048
0.234,0.053
0.234,0.053
0.234,0.058
0.235,0.058
0.235,0.068
0.235,0.068
0.235,0.073
0.236,0.073
0.236,0.078
0.236,0.080
0.236,0.087
0.237,0.087
0.237,0.092
0.237,0.092
0.237,0.093
0.238,0.092
0.238,0.093
0.238,0.092
0.238,0.097
0.239,0.097
0.239,0.105
0.239,0.105
0.239,0.115
0.240,0.113
0.240,0.128
0.240,0.128
0.240,0.142
0.241,0.142
0.241,0.152
0.241,0.152
0.241,0.158
0.242,0.158
0.242,0.163
0.242,0.165
0.242,0.160
0.243,0.158
0.243,0.165
0.243,0.165
0.243,0.170
0.244,0.170
0.244,0.175
0.244,0.177
0.244,0.185
0.245,0.185
0.245,0.190
0.245,0.188
0.245,0.197
0.246,0.197
0.246,0.215
0.246,0.217
0.246,0.237
0.247,0.238
0.247,0.272
0.247,0.273
0.247,0.340
0.248,0.340
0.248,0.385
0.248,0.367
0.248,0.087
0.249,0.077
0.249,0.117
0.249,0.090
0.249,0.170
0.250,0.100
0.250,0.175
0.250,0.255
0.251,0.257
0.251,0.267
0.251,0.263
0.251,0.225
0.252,0.222
0.252,0.178
0.252,0.178
0.252,0.152
0.253,0.152
0.253,0.142
0.253,0.140
0.253,0.133
0.254,0.135
0.254,0.130
0.254,0.130
0.254,0.127
0.255,0.127
0.255,0.122
0.255,0.123
0.255,0.120
0.256,0.120
0.256,0.122
0.256,0.123
0.256,0.120
0.257,0.122
0.257,0.117
0.257,0.118
0.257,0.120
0.258,0.118
0.258,0.120
0.258,0.120
0.258,0.117
0.259,0.117
0.259,0.112
0.259,0.112
0.259,0.108
0.260,0.108
0.260,0.103
0.260,0.105
0.260,0.102
0.261,0.105
0.261,0.113
0.261,0.113
0.261,0.123
0.262,0.123
0.262,0.132
0.262,0.132
0.262,0.133
0.263,0.133
0.263,0.137
0.263,0.135
0.263,0.133
0.264,0.135
0.264,0.132
0.264,0.133
0.264,0.123
0.265,0.123
0.265,0.115
0.265,0.115
0.265,0.097
0.266,0.097
0.266,0.087
0.266,0.085
0.266,0.077
0.267,0.077
0.267,0.072
0.267,0.073
0.267,0.075
0.268,0.075
0.268,0.080
0.268,0.080
0.268,0.083
0.269,0.083
0.269,0.082
0.269,0.082
0.269,0.078
0.270,0.080
0.270,0.075
0.270,0.075
0.270,0.072
0.271,0.072
0.271,0.067
0.271,0.067
0.271,0.070
0.272,0.065
0.272,0.063
0.272,0.063
0.272,0.062
0.273,0.062
0.273,0.065
0.273,0.065
0.273,0.060
0.274,0.060
0.274,0.052
0.274,0.053
0.274,0.048
0.275,0.048
0.275,0.047
0.275,0.050
0.275,0.047
0.276,0.048
0.276,0.045
0.276,0.048
0.276,0.043
0.277,0.045
0.277,0.040
0.277,0.042
0.277,0.038
0.278,0.038
0.278,0.042
0.278,0.040
0.278,0.045
0.279,0.047
0.279,0.053
0.279,0.053
0.279,0.077
0.280,0.078
0.280,0.143
0.280,0.145
0.280,-0.028
0.281,-0.025
0.281,0.012
0.281,0.013
0.281,0.033
0.281,0.035
0.282,0.038
0.282,0.038
0.282,0.028
0.282,0.027
0.283,0.023
0.283,0.022
0.283,0.027
0.283,0.027
0.284,0.032
0.284,0.032
0.284,0.033
0.284,0.033
0.285,0.028
0.285,0.030
0.285,0.027
0.285,0.027
0.286,0.018
0.286,0.018
0.286,0.008
0.286,0.008
0.287,-0.002
0.287,-0.002
0.287,-0.042
0.287,-0.045
0.288,-0.123
0.288,-0.127
0.288,-0.142
0.288,-0.135
0.289,-0.028
0.289,-0.025
0.289,0.057
0.289,0.058
0.290,0.078
0.290,0.075
0.290,0.045
0.290,0.045
0.291,0.022
0.291,0.020
0.291,0.010
0.291,0.010
0.292,0.005
0.292,0.005
0.292,0.007
0.292,0.008
0.293,0.013
0.293,0.015
0.293,0.018
0.293,0.017
0.294,0.020
0.294,0.020
0.294,0.025
0.294,0.025
0.295,0.018
0.295,0.017
0.295,0.007
0.295,0.005
0.296,-0.003
0.296,-0.003
0.296,0.002
0.296,0.002
0.297,0.013
0.297,0.013
0.297,0.020
0.297,0.020
0.298,0.037
0.298,0.037
0.298,0.065
0.298,0.067
0.299,0.090
0.299,0.080
0.299,0.017
0.299,0.030
0.300,0.218
0.300,0.013
0.300,0.227
0.300,0.202
0.301,-0.175
0.301,-0.182
0.301,-0.258
0.301,-0.223
0.302,-0.100
0.302,-0.095
0.302,-0.043
0.302,-0.042
0.303,-0.050
0.303,-0.053
0.303,-0.042
0.303,-0.042
0.304,-0.028
0.304,-0.028
0.304,-0.035
0.304,-0.032
0.305,-0.038
0.305,-0.038
0.305,-0.033
0.305,-0.033
0.306,-0.025
0.306,-0.023
0.306,-0.022
0.306,-0.022
0.307,-0.033
0.307,-0.033
0.307,-0.028
0.307,-0.027
0.308,-0.022
0.308,-0.025
0.308,-0.018
0.308,-0.022
0.309,-0.027
0.309,-0.022
0.309,-0.032
0.309,-0.033
0.310,-0.102
0.310,-0.120
0.310,-0.080
0.310,-0.077
0.311,0.020
0.311,0.022
0.311,0.048
0.311,0.047
0.312,0.013
0.312,0.012
0.312,-0.015
0.312,-0.015
0.313,-0.032
0.313,-0.032
0.313,-0.040
0.314,-0.040
0.314,-0.047
0.314,-0.045
0.314,-0.047
0.315,-0.045
0.315,-0.037
0.315,-0.037
0.315,-0.027
0.316,-0.027
0.316,-0.015
0.316,-0.015
0.316,-0.007
0.317,-0.007
0.317,-0.002
0.317,-0.003
0.317,0.002
0.318,-0.003
0.318,-0.010
0.318,-0.012
0.318,-0.018
0.319,-0.018
0.319,-0.023
0.319,-0.023
0.319,-0.025
0.320,-0.025
0.320,-0.032
0.320,-0.032
0.320,-0.040
0.321,-0.040
0.321,-0.043
0.321,-0.042
0.321,-0.037
0.322,-0.038
0.322,-0.028
0.322,-0.027
0.322,-0.018
0.323,-0.018
0.323,-0.012
0.323,-0.010
0.323,-0.015
0.324,-0.017
0.324,-0.035
0.324,-0.037
0.324,-0.057
0.325,-0.057
0.325,-0.067
0.325,-0.068
0.325,-0.060
0.326,-0.058
0.326,-0.047
0.326,-0.048
0.326,-0.042
0.327,-0.043
0.327,-0.042
0.327,-0.043
0.327,-0.033
0.328,-0.033
0.328,-0.022
0.328,-0.022
0.328,-0.010
0.329,-0.008
0.329,-0.013
0.329,-0.013
0.329,-0.017
0.330,-0.017
0.330,-0.030
0.330,-0.032
0.330,-0.035
0.331,-0.033
0.331,-0.030
0.331,-0.028
0.331,-0.025
0.332,-0.025
0.332,-0.030
0.332,-0.027
0.332,-0.038
0.333,-0.037
0.333,-0.047
0.333,-0.047
0.333,-0.052
0.334,-0.050
0.334,-0.053
0.334,-0.052
0.334,-0.043
0.335,-0.043
0.335,-0.035
0.335,-0.035
0.335,-0.028
0.336,-0.028
0.336,-0.025
0.336,-0.027
0.336,-0.030
0.337,-0.030
0.337,-0.027
0.337,-0.028
0.337,-0.028
0.338,-0.028
0.338,-0.033
0.338,-0.030
0.338,-0.033
0.339,-0.033
0.339,-0.038
0.339,-0.038
0.339,-0.043
0.340,-0.042
0.340,-0.045
0.340,-0.043
0.340,-0.040
0.341,-0.040
0.341,-0.037
0.341,-0.035
0.341,-0.038
0.342,-0.038
0.342,-0.043
0.342,-0.043
0.342,-0.050
0.343,-0.048
0.343,-0.058
0.343,-0.058
0.343,-0.065
0.344,-0.065
0.344,-0.068
0.344,-0.068
0.344,-0.063
0.344,-0.063
0.345,-0.057
0.345,-0.057
0.345,-0.055
0.345,-0.055
0.346,-0.057
0.346,-0.057
0.346,-0.055
0.346,-0.055
0.347,-0.058
0.347,-0.058
0.347,-0.058
0.347,-0.057
0.348,-0.060
0.348,-0.058
0.348,-0.060
0.348,-0.058
0.349,-0.062
0.349,-0.058
0.349,-0.060
0.349,-0.058
0.350,-0.057
0.350,-0.058
0.350,-0.062
0.350,-0.060
0.351,-0.052
0.351,-0.050
0.351,-0.038
0.351,-0.038
0.352,-0.027
0.352,-0.027
0.352,-0.020
0.352,-0.018
0.353,-0.008
0.353,-0.008
0.353,0.003
0.353,0.003
0.354,0.015
0.354,0.015
0.354,0.032
0.354,0.033
0.355,0.068
0.355,0.072
0.355,0.122
0.355,0.152
0.356,0.042
0.356,0.027
0.356,-0.128
0.356,-0.070
0.357,-0.107
0.357,-0.085
0.357,0.002
0.357,0.005
0.358,0.057
0.358,0.057
0.358,0.030
0.358,0.028
0.359,-0.020
0.359,-0.022
0.359,-0.090
0.359,-0.095
0.360,-0.197
0.360,-0.200
0.360,-0.237
0.360,-0.233
0.361,-0.133
0.361,-0.128
0.361,-0.040
0.361,-0.037
0.362,0.020
0.362,0.022
0.362,0.047
0.362,0.050
0.363,-0.152
0.363,-0.155
0.363,-0.130
0.363,-0.128
0.364,-0.093
0.364,-0.092
0.364,-0.070
0.364,-0.068
0.365,-0.058
0.365,-0.057
0.365,-0.048
0.365,-0.048
0.366,-0.035
0.366,-0.033
0.366,-0.018
0.366,-0.018
0.367,-0.007
0.367,-0.007
0.367,-0.002
0.367,-0.007
0.368,-0.013
0.368,-0.013
0.368,-0.020
0.368,-0.020
0.369,-0.030
0.369,-0.030
0.369,-0.037
0.369,-0.037
0.370,-0.040
0.370,-0.043
0.370,-0.037
0.370,-0.037
0.371,-0.030
0.371,-0.032
0.371,-0.027
0.371,-0.028
0.372,-0.025
0.372,-0.027
0.372,-0.023
0.372,-0.025
0.373,-0.023
0.373,-0.023
0.373,-0.020
0.373,-0.018
0.374,-0.012
0.374,-0.010
0.374,-0.017
0.374,-0.018
0.375,-0.060
0.375,-0.062
0.375,-0.102
0.376,-0.103
0.376,-0.050
0.376,-0.047
0.376,0.013
0.377,0.020
0.377,0.013
0.377,0.008
0.377,0.015
0.378,0.017
0.378,0.028
0.378,0.030
0.378,0.050
0.379,0.050
0.379,0.070
0.379,0.030
0.379,0.130
0.380,0.187
0.380,-0.040
0.380,0.207
0.380,-0.075
0.381,-0.100
0.381,-0.167
0.381,-0.182
0.381,-0.100
0.382,-0.097
0.382,-0.042
0.382,-0.040
0.382,-0.032
0.383,-0.030
0.383,-0.023
0.383,-0.023
0.383,-0.008
0.384,-0.007
0.384,0.007
0.384,0.008
0.384,0.012
0.385,0.012
0.385,0.018
0.385,0.020
0.385,0.015
0.386,0.015
0.386,0.008
0.386,0.010
0.386,0.005
0.387,0.007
0.387,0.002
0.387,0.002
0.387,-0.017
0.388,-0.017
0.388,-0.033
0.388,-0.033
0.388,-0.038
0.389,-0.035
0.389,-0.038
0.389,-0.037
0.389,-0.033
0.390,-0.035
0.390,-0.028
0.390,-0.028
0.390,-0.022
0.391,-0.023
0.391,-0.018
0.391,-0.018
0.391,-0.013
0.392,-0.015
0.392,-0.010
0.392,-0.008
0.392,-0.012
0.393,-0.010
0.393,-0.007
0.393,-0.007
0.393,-0.010
0.394,-0.007
0.394,-0.008
0.394,-0.007
0.394,-0.008
0.395,-0.008
0.395,-0.017
0.395,-0.017
0.395,-0.023
0.396,-0.025
0.396,-0.032
0.396,-0.030
0.396,-0.028
0.397,-0.030
0.397,-0.033
0.397,-0.033
0.397,-0.028
0.398,-0.030
0.398,-0.025
0.398,-0.025
0.398,-0.027
0.399,-0.025
0.399,-0.028
0.399,-0.025
0.399,-0.028
0.400,-0.028
0.400,-0.032
0.400,-0.032
0.400,-0.027
0.401,-0.027
0.401,-0.017
0.401,-0.017
0.401,-0.005
0.402,-0.005
0.402,0.007
0.402,0.007
0.402,0.022
0.403,0.023
0.403,0.035
0.403,0.035
0.403,0.028
0.404,0.027
0.404,0.020
0.404,0.022
0.404,0.017
0.405,0.017
0.405,0.012
0.405,0.010
0.405,0.007
0.406,0.008
0.406,0.012
0.406,0.010
0.406,0.008
0.406,0.008
0.407,0.005
0.407,0.005
0.407,0.008
0.407,0.008
0.408,0.007
0.408,0.007
0.408,0.003
0.408,0.005
0.409,0.003
0.409,0.003
0.409,-0.002
0.409,-0.002
0.410,0.002
0.410,0.000
0.410,-0.002
0.410,0.002
0.411,-0.002
0.411,0.000
0.411,-0.003
0.411,-0.002
0.412,-0.005
0.412,-0.005
0.412,-0.008
0.412,-0.008
0.413,-0.010
0.413,-0.010
0.413,-0.012
0.413,-0.012
0.414,-0.013
0.414,-0.013
0.414,-0.008
0.414,-0.008
0.415,-0.005
0.415,-0.005
0.415,-0.008
0.415,-0.008
0.416,-0.005
0.416,-0.005
0.416,-0.003
0.416,-0.003
0.417,0.000
0.417,0.000
0.417,0.002
0.417,0.002
0.418,0.005
0.418,0.005
0.418,0.007
0.418,0.007
0.419,0.005
0.419,0.005
0.419,0.000
0.419,-0.002
0.420,0.002
0.420,0.000
0.420,-0.003
0.420,-0.003
0.421,-0.005
0.421,-0.007
0.421,-0.003
0.421,-0.003
0.422,0.003
0.422,0.002
0.422,0.005
0.422,0.003
0.423,-0.002
0.423,-0.002
0.423,-0.010
0.423,-0.010
0.424,-0.013
0.424,-0.013
0.424,-0.018
0.424,-0.020
0.425,-0.017
0.425,-0.017
0.425,-0.008
0.425,-0.010
0.426,-0.005
0.426,-0.007
0.426,-0.002
0.426,-0.005
0.427,-0.013
0.427,-0.013
0.427,-0.030
0.427,-0.030
0.428,-0.033
0.428,-0.032
0.428,-0.035
0.428,-0.032
0.429,-0.025
0.429,-0.025
0.429,-0.022
0.429,-0.023
0.430,-0.013
0.430,-0.012
0.430,-0.035
0.430,-0.037
0.431,-0.127
0.431,-0.127
0.431,-0.060
0.431,-0.057
0.432,0.032
0.432,0.035
0.432,0.078
0.432,0.082
0.433,0.070
0.433,0.068
0.433,0.043
0.433,0.042
0.434,0.023
0.434,0.022
0.434,0.012
0.434,0.012
0.435,0.015
0.435,0.013
0.435,0.017
0.435,0.017
0.436,0.017
0.436,0.017
0.436,0.013
0.436,0.012
0.437,0.000
0.437,0.000
0.437,-0.008
0.438,-0.008
0.438,-0.010
0.438,-0.008
0.438,-0.003
0.439,-0.003
0.439,0.002
0.439,0.002
0.439,0.003
0.440,0.002
0.440,-0.010
0.440,-0.010
0.440,-0.022
0.441,-0.022
0.441,-0.027
0.441,-0.027
0.441,-0.032
0.442,-0.032
0.442,-0.028
0.442,-0.032
0.442,-0.030
0.443,-0.032
0.443,-0.028
0.443,-0.030
0.443,-0.027
0.444,-0.028
0.444,-0.035
0.444,-0.032
0.444,-0.035
0.445,-0.033
0.445,-0.027
0.445,-0.027
0.445,-0.025
0.446,-0.025
0.446,-0.028
0.446,-0.030
0.446,-0.027
0.447,-0.030
0.447,-0.027
0.447,-0.028
0.447,-0.020
0.448,-0.022
0.448,-0.018
0.448,-0.020
0.448,-0.027
0.449,-0.027
0.449,-0.073
0.449,-0.077
0.449,-0.153
0.450,-0.157
0.450,-0.133
0.450,-0.128
0.450,-0.032
0.451,-0.028
0.451,0.045
0.451,0.047
0.451,0.057
0.452,0.047
0.452,0.013
0.452,0.012
0.452,-0.012
0.453,-0.013
0.453,-0.022
0.453,-0.022
0.453,-0.025
0.454,-0.023
0.454,-0.027
0.454,-0.027
0.454,-0.032
0.455,-0.032
0.455,-0.035
0.455,-0.033
0.455,-0.030
0.456,-0.030
0.456,-0.025
0.456,-0.025
0.456,-0.023
0.457,-0.022
0.457,-0.025
0.457,-0.023
0.457,-0.025
0.458,-0.025
0.458,-0.023
0.458,-0.023
0.458,-0.027
0.459,-0.025
0.459,-0.020
0.459,-0.020
0.459,-0.017
0.460,-0.017
0.460,0.002
0.460,0.003
0.460,0.052
0.461,0.057
0.461,-0.115
0.461,-0.115
0.461,-0.075
0.462,-0.073
0.462,-0.037
0.462,-0.035
0.462,-0.015
0.463,-0.017
0.463,-0.012
0.463,-0.012
0.463,0.008
0.464,0.010
0.464,0.030
0.464,0.030
0.464,0.042
0.465,0.043
0.465,0.037
0.465,0.033
0.465,0.063
0.466,0.067
0.466,0.165
0.466,0.165
0.466,-0.008
0.467,-0.013
0.467,-0.065
0.467,-0.068
0.467,0.007
0.468,0.015
0.468,0.132
0.468,0.133
0.468,0.150
0.469,0.138
0.469,0.083
0.469,0.082
0.469,0.022
0.469,0.020
0.470,-0.003
0.470,-0.003
0.470,0.003
0.470,0.002
0.471,-0.068
0.471,-0.093
0.471,0.102
0.471,0.103
0.472,-0.087
0.472,0.135
0.472,-0.212
0.472,-0.197
0.473,-0.260
0.473,-0.248
0.473,-0.135
0.473,-0.130
0.474,-0.073
0.474,-0.073
0.474,-0.060
0.474,-0.060
0.475,-0.052
0.475,-0.052
0.475,-0.042
0.475,-0.042
0.476,-0.035
0.476,-0.037
0.476,-0.033
0.476,-0.033
0.477,-0.035
0.477,-0.035
0.477,-0.030
0.477,-0.032
0.478,-0.028
0.478,-0.028
0.478,-0.025
0.478,-0.025
0.479,-0.022
0.479,-0.020
0.479,-0.017
0.479,-0.018
0.480,-0.020
0.480,-0.020
0.480,-0.015
0.480,-0.015
0.481,-0.012
0.481,-0.010
0.481,0.000
0.481,0.000
0.482,0.008
0.482,0.008
0.482,0.013
0.482,0.013
0.483,0.018
0.483,0.018
0.483,0.023
0.483,0.023
0.484,0.030
0.484,0.030
0.484,0.033
0.484,0.032
0.485,0.035
0.485,0.035
0.485,0.038
0.485,0.035
0.486,0.023
0.486,0.023
0.486,0.000
0.486,0.000
0.487,-0.012
0.487,-0.012
0.487,-0.017
0.487,-0.013
0.488,-0.008
0.488,-0.008
0.488,0.000
0.488,0.000
0.489,0.007
0.489,0.008
0.489,0.015
0.489,0.015
0.490,0.022
0.490,0.020
0.490,0.030
0.490,0.028
0.491,0.035
0.491,0.033
0.491,0.037
0.491,0.037
0.492,0.040
0.492,0.040
0.492,0.037
0.492,0.038
0.493,0.030
0.493,0.030
0.493,0.027
0.493,0.027
0.494,0.033
0.494,0.033
0.494,0.040
0.494,0.040
0.495,0.038
0.495,0.042
0.495,0.047
0.495,0.047
0.496,0.043
0.496,0.045
0.496,0.042
0.496,0.042
0.497,0.038
0.497,0.038
0.497,0.043
0.497,0.043
0.498,0.050
0.498,0.050
0.498,0.065
0.498,0.067
0.499,0.080
0.499,0.078
0.499,0.073
0.499,0.077
0.500,0.068
0.500,0.100
0.500,0.067
0.500,0.058
0.501,0.057
0.501,0.040
0.501,0.042
0.501,0.030
0.502,0.030
0.502,0.033
0.502,0.033
0.502,0.032
0.503,0.032
0.503,0.025
0.503,0.025
0.503,0.022
0.504,0.023
0.504,0.020
0.504,0.023
0.504,0.030
0.505,0.028
0.505,0.033
0.505,0.033
0.505,0.037
0.506,0.037
0.506,0.038
0.506,0.038
0.506,0.035
0.507,0.037
0.507,0.032
0.507,0.033
0.507,0.028
0.508,0.027
0.508,0.032
0.508,0.032
0.508,0.038
0.509,0.040
0.509,0.048
0.509,0.048
0.509,0.058
0.510,0.060
0.510,0.053
0.510,0.053
0.510,0.047
0.511,0.047
0.511,0.043
0.511,0.045
0.511,0.042
0.512,0.045
0.512,0.050
0.512,0.048
0.512,0.057
0.513,0.057
0.513,0.050
0.513,0.050
0.513,0.042
0.514,0.042
0.514,0.033
0.514,0.033
0.514,0.025
0.515,0.027
0.515,0.040
0.515,0.040
0.515,0.053
0.516,0.053
0.516,0.050
0.516,0.053
0.516,0.048
0.517,0.050
0.517,0.047
0.517,0.047
0.517,0.050
0.518,0.047
0.518,0.045
0.518,0.047
0.518,0.045
0.519,0.045
0.519,0.048
0.519,0.050
0.519,0.055
0.520,0.055
0.520,0.060
0.520,0.060
0.520,0.062
0.521,0.058
0.521,0.050
0.521,0.048
0.521,0.037
0.522,0.040
0.522,0.035
0.522,0.035
0.522,0.037
0.523,0.035
0.523,0.037
0.523,0.037
0.523,0.040
0.524,0.038
0.524,0.037
0.524,0.037
0.524,0.033
0.525,0.033
0.525,0.027
0.525,0.027
0.525,0.030
0.526,0.028
0.526,0.035
0.526,0.035
0.526,0.037
0.527,0.035
0.527,0.020
0.527,0.018
0.527,-0.002
0.528,-0.003
0.528,-0.017
0.528,-0.018
0.528,-0.030
0.529,-0.032
0.529,-0.028
0.529,-0.028
0.529,-0.018
0.530,-0.018
0.530,-0.012
0.530,-0.012
0.530,-0.003
0.531,-0.003
0.531,0.005
0.531,0.007
0.531,-0.008
0.532,-0.010
0.532,-0.068
0.532,-0.072
0.532,-0.125
0.533,-0.120
0.533,-0.062
0.533,-0.057
0.533,0.025
0.534,0.028
0.534,0.080
0.534,0.083
0.534,0.062
0.535,0.060
0.535,0.027
0.535,0.025
0.535,0.008
0.536,0.007
0.536,-0.002
0.536,-0.002
0.536,-0.005
0.537,-0.005
0.537,-0.007
0.537,-0.008
0.537,-0.005
0.538,-0.003
0.538,-0.007
0.538,-0.003
0.538,-0.010
0.539,-0.010
0.539,-0.013
0.539,-0.010
0.539,-0.013
0.540,-0.015
0.540,-0.017
0.540,-0.015
0.540,-0.025
0.541,-0.028
0.541,-0.020
0.541,-0.027
0.541,-0.090
0.542,-0.095
0.542,-0.122
0.542,-0.100
0.542,0.003
0.543,0.007
0.543,0.053
0.543,0.055
0.543,0.048
0.544,0.048
0.544,0.035
0.544,0.033
0.544,0.025
0.545,0.023
0.545,0.025
0.545,0.025
0.545,0.023
0.546,0.023
0.546,0.018
0.546,0.017
0.546,0.013
0.547,0.017
0.547,0.012
0.547,0.015
0.547,0.013
0.548,0.015
0.548,0.040
0.548,0.043
0.548,0.072
0.549,0.072
0.549,-0.132
0.549,-0.135
0.549,-0.120
0.550,-0.120
0.550,-0.097
0.550,-0.095
0.550,-0.083
0.551,-0.082
0.551,-0.068
0.551,-0.067
0.551,-0.057
0.552,-0.057
0.552,-0.062
0.552,-0.063
0.552,-0.093
0.553,-0.093
0.553,-0.103
0.553,-0.098
0.553,0.000
0.554,0.005
0.554,0.085
0.554,0.090
0.554,0.077
0.555,0.075
0.555,0.067
0.555,0.068
0.555,0.065
0.556,0.065
0.556,0.048
0.556,0.053
0.556,0.042
0.557,0.042
0.557,0.037
0.557,0.038
0.557,0.033
0.558,0.035
0.558,0.048
0.558,0.048
0.558,0.058
0.559,0.052
0.559,-0.028
0.559,-0.023
0.559,0.173
0.560,0.002
0.560,0.177
0.560,0.092
0.560,-0.210
0.561,-0.175
0.561,-0.238
0.561,-0.198
0.561,-0.130
0.562,-0.128
0.562,-0.103
0.562,-0.103
0.562,-0.093
0.563,-0.092
0.563,-0.080
0.563,-0.080
0.564,-0.067
0.564,-0.068
0.564,-0.052
0.564,-0.050
0.565,-0.035
0.565,-0.035
0.565,-0.020
0.565,-0.020
0.566,-0.012
0.566,-0.012
0.566,-0.010
0.566,-0.012
0.567,-0.008
0.567,-0.012
0.567,-0.002
0.567,-0.002
0.568,0.013
0.568,0.013
0.568,0.017
0.568,0.012
0.569,0.017
0.569,0.015
0.569,0.020
0.569,0.017
0.570,0.022
0.570,0.022
0.570,0.033
0.570,0.033
0.571,0.058
0.571,0.060
0.571,0.095
0.571,0.097
0.572,0.157
0.572,0.160
0.572,0.238
0.572,0.247
0.573,0.078
0.573,0.065
0.573,-0.103
0.573,-0.158
0.574,-0.090
0.574,-0.083
0.574,0.020
0.574,0.023
0.575,0.052
0.575,0.048
0.575,0.007
0.575,0.003
0.576,-0.043
0.576,-0.045
0.576,-0.078
0.576,-0.080
0.577,-0.098
0.577,-0.100
0.577,-0.108
0.577,-0.108
0.578,-0.113
0.578,-0.115
0.578,-0.120
0.578,-0.118
0.579,-0.122
0.579,-0.120
0.579,-0.117
0.579,-0.117
0.580,-0.105
0.580,-0.105
0.580,-0.092
0.580,-0.092
0.581,-0.073
0.581,-0.073
0.581,-0.060
0.581,-0.060
0.582,-0.048
0.582,-0.048
0.582,-0.045
0.582,-0.048
0.583,-0.045
0.583,-0.045
0.583,-0.037
0.583,-0.037
0.584,-0.035
0.584,-0.035
0.584,-0.035
0.584,-0.037
0.585,-0.033
0.585,-0.033
0.585,-0.027
0.585,-0.028
0.586,-0.025
0.586,-0.025
0.586,-0.033
0.586,-0.032
0.587,-0.037
0.587,-0.037
0.587,-0.043
0.587,-0.045
0.588,-0.055
0.588,-0.053
0.588,-0.065
0.588,-0.065
0.589,-0.070
0.589,-0.068
0.589,-0.060
0.589,-0.060
0.590,-0.042
0.590,-0.040
0.590,-0.018
0.590,-0.017
0.591,-0.005
0.591,-0.005
0.591,-0.008
0.591,-0.007
0.592,-0.003
0.592,-0.003
0.592,-0.002
0.592,-0.005
0.593,0.000
0.593,0.000
0.593,-0.008
0.593,-0.008
0.594,-0.018
0.594,-0.018
0.594,-0.027
0.594,-0.027
0.595,-0.030
0.595,-0.027
0.595,-0.018
0.595,-0.018
0.596,-0.007
0.596,-0.008
0.596,-0.002
0.596,-0.003
0.597,0.000
0.597,0.000
0.597,0.002
0.597,0.002
0.598,-0.003
0.598,-0.005
0.598,0.000
0.598,-0.002
0.599,-0.003
0.599,-0.003
0.599,-0.005
0.599,-0.007
0.600,-0.003
0.600,-0.005
0.600,-0.015
0.600,-0.015
0.601,-0.018
0.601,-0.018
0.601,-0.015
0.601,-0.015
0.602,-0.012
0.602,-0.012
0.602,-0.007
0.602,-0.008
0.603,-0.005
0.603,-0.007
0.603,-0.005
0.603,-0.003
0.604,0.002
0.604,0.002
0.604,0.005
0.604,0.000
0.605,0.003
0.605,0.002
0.605,0.008
0.605,0.008
0.606,0.023
0.606,0.025
0.606,0.050
0.606,0.050
0.607,0.068
0.607,0.068
0.607,0.072
0.607,0.068
0.608,0.062
0.608,0.060
0.608,0.057
0.608,0.057
0.609,0.052
0.609,0.052
0.609,0.048
0.609,0.048
0.610,0.050
0.610,0.050
0.610,0.047
0.610,0.048
0.611,0.045
0.611,0.047
0.611,0.050
0.611,0.050
0.612,0.057
0.612,0.057
0.612,0.058
0.612,0.058
0.613,0.062
0.613,0.060
0.613,0.062
0.613,0.058
0.614,0.062
0.614,0.062
0.614,0.058
0.614,0.062
0.615,0.068
0.615,0.073
0.615,0.067
0.615,0.065
0.616,0.025
0.616,0.022
0.616,-0.060
0.616,-0.070
0.617,-0.055
0.617,-0.053
0.617,0.023
0.617,0.027
0.618,0.092
0.618,0.095
0.618,0.112
0.618,0.108
0.619,0.095
0.619,0.095
0.619,0.083
0.619,0.085
0.620,0.075
0.620,0.075
0.620,0.060
0.620,0.060
0.621,0.050
0.621,0.050
0.621,0.047
0.621,0.047
0.622,0.050
0.622,0.050
0.622,0.055
0.622,0.055
0.623,0.053
0.623,0.055
0.623,0.052
0.623,0.050
0.624,0.047
0.624,0.045
0.624,0.050
0.624,0.050
0.625,0.048
0.625,0.050
0.625,0.047
0.625,0.048
0.625,0.042
0.626,0.042
0.626,0.038
0.626,0.040
0.626,0.037
0.627,0.042
0.627,0.043
0.627,0.045
0.627,0.050
0.628,0.050
0.628,0.055
0.628,0.053
0.628,0.052
0.629,0.053
0.629,0.045
0.629,0.045
0.629,0.035
0.630,0.035
0.630,0.025
0.630,0.025
0.630,0.018
0.631,0.018
0.631,0.010
0.631,0.010
0.631,0.005
0.632,0.005
0.632,0.002
0.632,0.002
0.632,0.003
0.633,0.000
0.633,0.003
0.633,0.002
0.633,0.007
0.634,0.005
0.634,0.015
0.634,0.015
0.634,0.032
0.635,0.033
0.635,0.047
0.635,0.048
0.635,0.058
0.636,0.058
0.636,0.050
0.636,0.050
0.636,0.037
0.637,0.037
0.637,0.025
0.637,0.025
0.637,0.018
0.638,0.018
0.638,0.015
0.638,0.015
0.638,0.017
0.639,0.017
0.639,0.013
0.639,0.013
0.639,0.010
0.640,0.013
0.640,0.010
0.640,0.010
0.640,0.007
0.641,0.008
0.641,0.010
0.641,0.008
0.641,0.012
0.642,0.013
0.642,0.010
0.642,0.013
0.642,0.015
0.643,0.015
0.643,0.012
0.643,0.013
0.643,0.008
0.644,0.010
0.644,0.005
0.644,0.005
0.644,-0.002
0.645,-0.002
0.645,-0.028
0.645,-0.030
0.645,-0.063
0.646,-0.067
0.646,-0.037
0.646,-0.033
0.646,0.038
0.647,0.040
0.647,0.053
0.647,0.048
0.647,0.035
0.648,0.037
0.648,0.042
0.648,0.042
0.648,0.035
0.649,0.035
0.649,0.028
0.649,0.027
0.649,0.010
0.650,0.010
0.650,0.003
0.650,0.002
0.650,-0.003
0.651,-0.003
0.651,0.000
0.651,0.000
0.651,0.003
0.652,0.002
0.652,0.007
0.652,0.007
0.652,0.017
0.653,0.015
0.653,0.018
0.653,0.017
0.653,0.022
0.654,0.022
0.654,0.023
0.654,0.023
0.654,0.027
0.655,0.027
0.655,0.038
0.655,0.038
0.655,0.048
0.656,0.048
0.656,0.072
0.656,0.075
0.656,0.112
0.657,0.112
0.657,-0.058
0.657,-0.057
0.657,-0.017
0.658,-0.015
0.658,0.025
0.658,0.025
0.658,0.055
0.659,0.070
0.659,0.033
0.659,-0.030
0.659,0.040
0.660,0.080
0.660,-0.097
0.660,0.157
0.660,-0.080
0.661,-0.080
0.661,-0.132
0.661,-0.133
0.661,-0.062
0.662,-0.058
0.662,-0.023
0.662,-0.023
0.662,-0.028
0.663,-0.028
0.663,-0.037
0.663,-0.037
0.663,-0.045
0.664,-0.043
0.664,-0.042
0.664,-0.040
0.664,-0.030
0.665,-0.028
0.665,-0.017
0.665,-0.017
0.665,-0.010
0.666,-0.010
0.666,-0.003
0.666,-0.003
0.666,0.002
0.667,0.002
0.667,0.003
0.667,0.003
0.667,-0.003
0.668,-0.005
0.668,-0.008
0.668,-0.007
0.668,-0.003
0.669,-0.005
0.669,-0.003
0.669,-0.005
0.669,-0.008
0.670,-0.008
0.670,-0.013
0.670,-0.013
0.670,-0.017
0.671,-0.015
0.671,-0.022
0.671,-0.022
0.671,-0.028
0.672,-0.028
0.672,-0.032
0.672,-0.033
0.672,-0.028
0.673,-0.028
0.673,-0.022
0.673,-0.022
0.673,-0.017
0.674,-0.017
0.674,-0.015
0.674,-0.015
0.674,-0.018
0.675,-0.018
0.675,-0.018
0.675,-0.020
0.675,-0.015
0.676,-0.017
0.676,-0.012
0.676,-0.013
0.676,-0.005
0.677,-0.005
0.677,0.000
0.677,0.000
0.677,0.002
0.678,0.002
0.678,0.000
0.678,0.000
0.678,-0.010
0.679,-0.010
0.679,-0.023
0.679,-0.023
0.679,-0.033
0.680,-0.033
0.680,-0.027
0.680,-0.027
0.680,-0.018
0.681,-0.015
0.681,-0.020
0.681,-0.020
0.681,-0.008
0.682,-0.008
0.682,0.003
0.682,0.003
0.682,0.005
0.683,0.002
0.683,-0.003
0.683,-0.002
0.683,0.002
0.684,-0.002
0.684,0.010
0.684,0.010
0.684,0.028
0.685,0.030
0.685,0.050
0.685,0.052
0.685,0.080
0.686,0.082
0.686,0.143
0.686,0.143
0.686,0.185
0.687,0.162
0.687,-0.125
0.687,-0.142
0.688,-0.125
0.688,-0.127
0.688,-0.072
0.688,-0.067
0.689,0.030
0.689,0.033
0.689,0.052
0.689,0.048
0.690,0.018
0.690,0.017
0.690,-0.025
0.690,-0.027
0.691,-0.053
0.691,-0.055
0.691,-0.068
0.691,-0.068
0.692,-0.082
0.692,-0.082
0.692,-0.085
0.692,-0.085
0.693,-0.077
0.693,-0.078
0.693,-0.067
0.693,-0.065
0.694,-0.053
0.694,-0.052
0.694,-0.043
0.694,-0.042
0.695,-0.032
0.695,-0.033
0.695,-0.045
0.695,-0.045
0.696,-0.052
0.696,-0.052
0.696,-0.057
0.696,-0.058
0.697,-0.092
0.697,-0.095
0.697,-0.172
0.697,-0.175
0.698,-0.188
0.698,-0.177
0.698,-0.068
0.698,-0.065
0.699,0.035
0.699,0.040
0.699,0.085
0.699,0.087
0.700,0.065
0.700,0.063
0.700,0.022
0.700,0.020
0.701,-0.010
0.701,-0.010
0.701,-0.020
0.701,-0.022
0.702,-0.025
0.702,-0.025
0.702,-0.027
0.702,-0.025
0.703,-0.028
0.703,-0.027
0.703,-0.022
0.703,-0.023
0.704,-0.018
0.704,-0.018
0.704,-0.017
0.704,-0.017
0.705,-0.013
0.705,-0.012
0.705,-0.005
0.705,-0.007
0.706,-0.003
0.706,-0.007
0.706,-0.010
0.706,-0.010
0.707,-0.008
0.707,-0.010
0.707,-0.015
0.707,-0.015
0.708,-0.020
0.708,-0.020
0.708,-0.032
0.708,-0.032
0.709,-0.028
0.709,-0.028
0.709,-0.020
0.709,-0.022
0.710,-0.017
0.710,-0.017
0.710,-0.015
0.710,-0.013
0.711,-0.008
0.711,-0.007
0.711,0.002
0.711,0.002
0.712,0.003
0.712,0.002
0.712,-0.003
0.712,-0.005
0.713,-0.015
0.713,-0.017
0.713,-0.035
0.713,-0.035
0.714,-0.042
0.714,-0.042
0.714,-0.037
0.714,-0.037
0.715,-0.025
0.715,-0.025
0.715,-0.017
0.715,-0.017
0.716,-0.027
0.716,-0.027
0.716,-0.033
0.716,-0.033
0.717,-0.038
0.717,-0.037
0.717,-0.040
0.717,-0.040
0.718,-0.045
0.718,-0.047
0.718,-0.043
0.718,-0.043
0.719,-0.040
0.719,-0.040
0.719,-0.038
0.719,-0.038
0.720,-0.033
0.720,-0.033
0.720,-0.028
0.720,-0.028
0.721,-0.022
0.721,-0.022
0.721,-0.017
0.721,-0.017
0.722,-0.010
0.722,-0.010
0.722,-0.002
0.722,-0.002
0.723,0.013
0.723,0.013
0.723,0.033
0.723,0.035
0.724,0.043
0.724,0.042
0.724,0.028
0.724,0.028
0.725,0.012
0.725,0.012
0.725,0.002
0.725,0.002
0.726,-0.007
0.726,-0.007
0.726,-0.017
0.726,-0.018
0.727,-0.057
0.727,-0.058
0.727,-0.078
0.727,-0.077
0.728,-0.012
0.728,-0.008
0.728,0.043
0.728,0.043
0.729,0.028
0.729,0.027
0.729,0.017
0.729,0.018
0.730,0.017
0.730,0.015
0.730,0.003
0.730,0.003
0.731,-0.008
0.731,-0.008
0.731,-0.012
0.731,-0.012
0.732,-0.008
0.732,-0.010
0.732,-0.007
0.732,-0.010
0.733,-0.008
0.733,-0.008
0.733,-0.008
0.733,-0.007
0.734,-0.010
0.734,-0.010
0.734,-0.007
0.734,-0.008
0.735,-0.010
0.735,-0.008
0.735,-0.010
0.735,-0.008
0.736,-0.005
0.736,-0.007
0.736,-0.005
0.736,-0.007
0.737,-0.012
0.737,-0.012
0.737,-0.017
0.737,-0.015
0.738,-0.018
0.738,-0.018
0.738,-0.015
0.738,-0.017
0.739,-0.013
0.739,-0.013
0.739,-0.010
0.739,-0.010
0.740,-0.005
0.740,-0.007
0.740,-0.002
0.740,-0.003
0.741,-0.002
0.741,-0.002
0.741,0.003
0.741,0.003
0.742,0.010
0.742,0.010
0.742,0.015
0.742,0.015
0.743,0.037
0.743,0.040
0.743,0.100
0.743,0.102
0.744,-0.057
0.744,-0.055
0.744,-0.018
0.744,-0.017
0.745,0.007
0.745,0.007
0.745,0.022
0.745,0.022
0.746,0.028
0.746,0.028
0.746,0.030
0.746,0.028
0.747,0.035
0.747,0.037
0.747,0.063
0.747,0.065
0.748,0.085
0.748,0.078
0.748,0.008
0.748,0.010
0.749,0.167
0.749,0.002
0.749,0.187
0.749,0.197
0.750,-0.127
0.750,-0.113
0.750,-0.177
0.750,0.100
0.750,-0.145
0.751,-0.068
0.751,-0.067
0.751,-0.037
0.751,-0.037
0.752,-0.027
0.752,-0.027
0.752,-0.025
0.752,-0.025
0.753,-0.030
0.753,-0.030
0.753,-0.023
0.753,-0.025
0.754,-0.013
0.754,-0.012
0.754,-0.002
0.754,0.000
0.755,0.013
0.755,0.013
0.755,0.027
0.755,0.028
0.756,0.037
0.756,0.038
0.756,0.028
0.756,0.028
0.757,0.010
0.757,0.008
0.757,0.002
0.757,0.002
0.758,0.005
0.758,0.003
0.758,0.008
0.758,0.008
0.759,0.003
0.759,0.003
0.759,-0.003
0.759,-0.002
0.760,-0.012
0.760,-0.013
0.760,-0.007
0.760,-0.008
0.761,-0.033
0.761,-0.035
0.761,-0.088
0.761,-0.080
0.762,0.007
0.762,0.012
0.762,0.072
0.762,0.075
0.763,0.068
0.763,0.068
0.763,0.045
0.763,0.045
0.764,0.032
0.764,0.032
0.764,0.028
0.764,0.032
0.765,0.033
0.765,0.033
0.765,0.042
0.765,0.040
0.766,0.043
0.766,0.042
0.766,0.043
0.766,0.042
0.767,0.040
0.767,0.040
0.767,0.032
0.767,0.032
0.768,0.018
0.768,0.017
0.768,0.010
0.768,0.010
0.769,0.003
0.769,0.003
0.769,0.007
0.769,0.005
0.770,0.008
0.770,0.007
0.770,0.002
0.770,0.002
0.771,-0.002
0.771,0.000
0.771,-0.010
0.771,-0.008
0.772,-0.015
0.772,-0.013
0.772,-0.015
0.772,-0.015
0.773,-0.020
0.773,-0.020
0.773,-0.022
0.773,-0.020
0.774,-0.010
0.774,-0.010
0.774,0.007
0.774,0.007
0.775,0.020
0.775,0.020
0.775,0.035
0.775,0.035
0.776,0.040
0.776,0.038
0.776,0.035
0.776,0.037
0.777,0.027
0.777,0.025
0.777,0.017
0.777,0.013
0.778,0.025
0.778,0.027
0.778,0.042
0.778,0.042
0.779,0.052
0.779,0.052
0.779,0.057
0.779,0.057
0.780,0.050
0.780,0.050
0.780,0.037
0.780,0.035
0.781,0.017
0.781,0.015
0.781,-0.010
0.781,-0.012
0.782,-0.050
0.782,-0.052
0.782,-0.120
0.782,-0.123
0.783,-0.165
0.783,-0.167
0.783,-0.073
0.783,-0.067
0.784,0.048
0.784,0.052
0.784,0.105
0.784,0.105
0.785,0.072
0.785,0.068
0.785,0.027
0.785,0.025
0.786,-0.005
0.786,-0.007
0.786,-0.025
0.786,-0.027
0.787,-0.038
0.787,-0.040
0.787,-0.035
0.787,-0.035
0.788,-0.038
0.788,-0.038
0.788,-0.025
0.788,-0.023
0.789,-0.010
0.789,-0.008
0.789,0.000
0.789,-0.002
0.790,0.005
0.790,0.005
0.790,0.008
0.790,0.010
0.791,0.017
0.791,0.017
0.791,0.033
0.791,0.035
0.792,0.060
0.792,0.062
0.792,0.108
0.792,0.110
0.793,0.180
0.793,0.182
0.793,0.215
0.793,0.183
0.794,-0.092
0.794,-0.105
0.794,-0.062
0.794,-0.057
0.795,-0.010
0.795,-0.005
0.795,0.067
0.795,0.073
0.796,0.065
0.796,0.063
0.796,0.020
0.796,0.018
0.797,-0.022
0.797,-0.023
0.797,-0.052
0.797,-0.052
0.798,-0.070
0.798,-0.072
0.798,-0.088
0.798,-0.088
0.799,-0.098
0.799,-0.098
0.799,-0.108
0.799,-0.108
0.800,-0.112
0.800,-0.108
0.800,-0.097
0.800,-0.097
0.801,-0.085
0.801,-0.085
0.801,-0.073
0.801,-0.073
0.802,-0.067
0.802,-0.067
0.802,-0.062
0.802,-0.062
0.803,-0.058
0.803,-0.058
0.803,-0.063
0.803,-0.063
0.804,-0.060
0.804,-0.060
0.804,-0.057
0.804,-0.057
0.805,-0.045
0.805,-0.047
0.805,-0.040
0.805,-0.040
0.806,-0.030
0.806,-0.030
0.806,-0.015
0.806,-0.015
0.807,0.000
0.807,0.002
0.807,0.015
0.807,0.015
0.808,0.020
0.808,0.018
0.808,0.022
0.808,0.020
0.809,0.015
0.809,0.015
0.809,0.008
0.809,0.008
0.810,0.005
0.810,0.003
0.810,0.008
0.810,0.008
0.811,0.020
0.811,0.022
0.811,0.037
0.811,0.037
0.812,0.043
0.812,0.042
0.812,0.035
0.812,0.033
0.813,0.008
0.813,0.007
0.813,-0.025
0.814,-0.027
0.814,-0.045
0.814,-0.047
0.814,-0.040
0.815,-0.038
0.815,-0.023
0.815,-0.022
0.815,-0.010
0.816,-0.010
0.816,-0.003
0.816,-0.003
0.816,0.000
0.817,-0.002
0.817,0.002
0.817,0.002
0.817,-0.003
0.818,-0.002
0.818,-0.008
0.818,-0.008
0.818,-0.010
0.819,-0.012
0.819,-0.017
0.819,-0.017
0.819,-0.015
0.820,-0.015
0.820,-0.010
0.820,-0.012
0.820,-0.005
0.821,-0.007
0.821,-0.003
0.821,-0.003
0.821,-0.007
0.822,-0.008
0.822,-0.018
0.822,-0.018
0.822,-0.027
0.823,-0.028
0.823,-0.025
0.823,-0.027
0.823,-0.023
0.824,-0.023
0.824,-0.018
0.824,-0.017
0.824,-0.010
0.825,-0.007
0.825,-0.012
0.825,-0.013
0.825,-0.048
0.826,-0.050
0.826,-0.092
0.826,-0.102
0.826,-0.073
0.827,-0.070
0.827,0.005
0.827,0.007
0.827,0.018
0.828,0.012
0.828,-0.003
0.828,-0.002
0.828,0.003
0.829,0.007
0.829,0.000
0.829,-0.002
0.829,-0.005
0.830,-0.005
0.830,-0.017
0.830,-0.015
0.830,-0.008
0.831,-0.008
0.831,0.003
0.831,0.003
0.831,0.017
0.832,0.017
0.832,0.027
0.832,0.027
0.832,0.025
0.833,0.027
0.833,0.030
0.833,0.032
0.833,0.022
0.834,0.022
0.834,0.015
0.834,0.015
0.834,0.023
0.835,0.025
0.835,0.035
0.835,0.037
0.835,0.065
0.836,0.067
0.836,0.100
0.836,0.102
0.836,0.057
0.837,0.055
0.837,0.180
0.837,-0.015
0.837,0.153
0.838,0.162
0.838,-0.148
0.838,-0.092
0.838,-0.127
0.839,-0.095
0.839,-0.202
0.839,-0.175
0.839,-0.100
0.840,-0.098
0.840,-0.055
0.840,-0.053
0.840,-0.033
0.841,-0.033
0.841,-0.028
0.841,-0.028
0.841,-0.023
0.842,-0.025
0.842,-0.022
0.842,-0.022
0.842,-0.023
0.843,-0.023
0.843,-0.010
0.843,-0.010
0.843,-0.002
0.844,-0.002
0.844,0.000
0.844,0.000
0.844,-0.008
0.845,-0.008
0.845,-0.018
0.845,-0.018
0.845,-0.023
0.846,-0.023
0.846,-0.025
0.846,-0.023
0.846,-0.017
0.847,-0.015
0.847,-0.005
0.847,-0.005
0.847,0.002
0.848,0.003
0.848,0.008
0.848,0.005
0.848,0.008
0.849,0.007
0.849,0.010
0.849,0.010
0.849,0.008
0.850,0.008
0.850,0.003
0.850,0.003
0.850,0.002
0.851,0.002
0.851,0.010
0.851,0.012
0.851,0.015
0.852,0.015
0.852,0.013
0.852,0.013
0.852,0.005
0.853,0.003
0.853,-0.003
0.853,-0.003
0.853,-0.007
0.854,-0.005
0.854,-0.008
0.854,-0.007
0.854,-0.003
0.855,-0.003
0.855,0.003
0.855,0.002
0.855,0.010
0.856,0.010
0.856,0.025
0.856,0.025
0.856,0.032
0.857,0.030
0.857,0.023
0.857,0.023
0.857,0.020
0.858,0.022
0.858,0.025
0.858,0.023
0.858,0.025
0.859,0.023
0.859,0.020
0.859,0.020
0.859,0.012
0.860,0.013
0.860,0.008
0.860,0.008
0.860,0.005
0.861,0.005
0.861,0.008
0.861,0.008
0.861,0.002
0.862,0.000
0.862,-0.040
0.862,-0.043
0.862,-0.123
0.863,-0.127
0.863,-0.132
0.863,-0.125
0.863,-0.033
0.864,-0.030
0.864,0.025
0.864,0.027
0.864,0.042
0.865,0.038
0.865,0.008
0.865,0.007
0.865,-0.065
0.866,-0.072
0.866,-0.015
0.866,-0.012
0.866,0.072
0.867,0.075
0.867,0.095
0.867,0.092
0.867,0.058
0.868,0.057
0.868,0.033
0.868,0.033
0.868,0.030
0.869,0.028
0.869,0.033
0.869,0.035
0.869,0.042
0.870,0.042
0.870,0.038
0.870,0.040
0.870,0.035
0.871,0.035
0.871,0.033
0.871,0.033
0.871,0.028
0.872,0.028
0.872,0.018
0.872,0.018
0.872,0.010
0.873,0.008
0.873,0.005
0.873,0.007
0.873,0.010
0.874,0.008
0.874,0.013
0.874,0.013
0.874,0.012
0.875,0.013
0.875,0.015
0.875,0.015
0.875,0.013
0.875,0.015
0.876,0.018
0.876,0.017
0.876,0.018
0.876,0.018
0.877,0.015
0.877,0.015
0.877,0.018
0.877,0.017
0.878,0.020
0.878,0.020
0.878,0.017
0.878,0.017
0.879,0.020
0.879,0.018
0.879,0.017
0.879,0.018
0.880,0.017
0.880,0.018
0.880,0.013
0.880,0.013
0.881,0.010
0.881,0.010
0.881,0.007
0.881,0.008
0.882,0.007
0.882,0.007
0.882,0.005
0.882,0.005
0.883,0.008
0.883,0.008
0.883,0.007
0.883,0.007
0.884,0.005
0.884,0.005
0.884,0.010
0.884,0.010
0.885,0.008
0.885,0.008
0.885,0.007
0.885,0.008
0.886,0.005
0.886,0.005
0.886,0.010
0.886,0.010
0.887,0.013
0.887,0.015
0.887,0.013
0.887,0.015
0.888,0.017
0.888,0.015
0.888,0.008
0.888,0.008
0.889,0.002
0.889,0.000
0.889,-0.007
0.889,-0.008
0.890,-0.013
0.890,-0.010
0.890,-0.013
0.890,-0.013
0.891,-0.015
0.891,-0.013
0.891,-0.015
0.891,-0.013
0.892,-0.015
0.892,-0.012
0.892,-0.015
0.892,-0.013
0.893,-0.017
0.893,-0.017
0.893,-0.013
0.893,-0.015
0.894,-0.007
0.894,-0.007
0.894,-0.002
0.894,-0.002
0.895,0.012
0.895,0.012
0.895,0.018
0.895,0.017
0.896,0.020
0.896,0.020
0.896,0.023
0.896,0.022
0.897,0.017
0.897,0.018
0.897,0.012
0.897,0.012
0.898,0.020
0.898,0.020
0.898,0.028
0.898,0.027
0.899,0.040
0.899,0.038
0.899,0.042
0.899,0.040
0.900,0.035
0.900,0.035
0.900,0.025
0.900,0.025
0.901,0.023
0.901,0.023
0.901,0.035
0.901,0.035
0.902,0.042
0.902,0.042
0.902,0.045
0.902,0.043
0.903,0.052
0.903,0.052
0.903,0.060
0.903,0.062
0.904,0.080
0.904,0.080
0.904,0.105
0.904,0.107
0.905,0.140
0.905,0.142
0.905,0.195
0.905,0.198
0.906,0.257
0.906,0.257
0.906,0.027
0.906,0.013
0.907,-0.075
0.907,-0.033
0.907,-0.057
0.907,-0.035
0.908,0.060
0.908,0.063
0.908,0.082
0.908,0.077
0.909,0.028
0.909,0.027
0.909,-0.028
0.909,-0.032
0.910,-0.073
0.910,-0.075
0.910,-0.103
0.910,-0.105
0.911,-0.113
0.911,-0.113
0.911,-0.103
0.911,-0.102
0.912,-0.088
0.912,-0.088
0.912,-0.107
0.912,-0.108
0.913,-0.133
0.913,-0.135
0.913,-0.090
0.913,-0.087
0.914,-0.013
0.914,-0.012
0.914,0.002
0.914,-0.002
0.915,0.002
0.915,0.003
0.915,0.023
0.915,0.027
0.916,0.022
0.916,0.022
0.916,0.015
0.916,0.013
0.917,0.007
0.917,0.007
0.917,0.005
0.917,0.007
0.918,0.008
0.918,0.008
0.918,0.010
0.918,0.010
0.919,0.012
0.919,0.012
0.919,0.013
0.919,0.013
0.920,0.018
0.920,0.017
0.920,0.025
0.920,0.023
0.921,0.027
0.921,0.027
0.921,0.028
0.921,0.028
0.922,0.025
0.922,0.027
0.922,0.023
0.922,0.025
0.923,0.015
0.923,0.015
0.923,0.002
0.923,0.002
0.924,-0.005
0.924,-0.003
0.924,0.000
0.924,0.002
0.925,0.008
0.925,0.008
0.925,0.012
0.925,0.010
0.926,0.000
0.926,0.000
0.926,-0.007
0.926,-0.008
0.927,-0.012
0.927,-0.010
0.927,-0.007
0.927,-0.008
0.928,-0.005
0.928,-0.005
0.928,-0.007
0.928,-0.003
0.929,0.005
0.929,0.007
0.929,0.018
0.929,0.020
0.930,0.037
0.930,0.038
0.930,0.063
0.930,0.065
0.931,0.107
0.931,0.110
0.931,0.145
0.931,0.152
0.932,0.100
0.932,0.113
0.932,0.323
0.932,0.168
0.933,0.033
0.933,0.042
0.933,-0.193
0.933,-0.217
0.934,-0.153
0.934,-0.148
0.934,-0.073
0.934,-0.072
0.935,-0.052
0.935,-0.052
0.935,-0.043
0.935,-0.043
0.936,-0.035
0.936,-0.038
0.936,-0.032
0.936,-0.032
0.937,-0.035
0.937,-0.033
0.937,-0.037
0.938,-0.035
0.938,-0.028
0.938,-0.028
0.938,-0.018
0.939,-0.017
0.939,-0.003
0.939,-0.003
0.939,0.007
0.940,0.008
0.940,0.012
0.940,0.010
0.940,0.003
0.941,0.003
0.941,0.000
0.941,0.003
0.941,0.010
0.942,0.010
0.942,0.017
0.942,0.017
0.942,0.012
0.943,0.012
0.943,0.008
0.943,0.008
0.943,0.003
0.944,0.003
0.944,-0.002
0.944,-0.002
0.944,-0.010
0.945,-0.012
0.945,-0.015
0.945,-0.015
0.945,-0.013
0.946,-0.013
0.946,-0.012
0.946,-0.013
0.946,-0.018
0.947,-0.018
0.947,-0.017
0.947,-0.017
0.947,-0.012
0.948,-0.012
0.948,-0.008
0.948,-0.010
0.948,-0.008
0.949,-0.010
0.949,-0.008
0.949,-0.008
0.949,-0.003
0.950,-0.003
0.950,0.002
0.950,0.000
0.950,0.005
0.951,0.005
0.951,0.000
0.951,-0.002
0.951,-0.053
0.952,-0.055
0.952,-0.133
0.952,-0.138
0.952,-0.105
0.953,-0.100
0.953,0.002
0.953,0.005
0.953,0.075
0.954,0.083
0.954,0.072
0.954,0.070
0.954,0.042
0.955,0.042
0.955,0.025
0.955,0.025
0.955,0.018
0.956,0.018
0.956,0.010
0.956,0.008
0.956,-0.002
0.957,-0.002
0.957,-0.012
0.957,-0.012
0.957,-0.005
0.958,-0.005
0.958,0.018
0.958,0.020
0.958,0.037
0.959,0.037
0.959,0.030
0.959,0.028
0.959,0.017
0.960,0.017
0.960,-0.008
0.960,-0.012
0.960,-0.042
0.961,-0.043
0.961,-0.062
0.961,-0.063
0.961,-0.057
0.962,-0.055
0.962,-0.045
0.962,-0.045
0.962,-0.035
0.963,-0.035
0.963,-0.033
0.963,-0.035
0.963,-0.033
0.964,-0.033
0.964,-0.032
0.964,-0.033
0.964,-0.040
0.965,-0.038
0.965,-0.043
0.965,-0.045
0.965,-0.038
0.966,-0.037
0.966,-0.052
0.966,-0.055
0.966,-0.113
0.967,-0.108
0.967,-0.053
0.967,-0.048
0.967,0.027
0.968,0.028
0.968,0.043
0.968,0.042
0.968,0.035
0.969,0.033
0.969,0.025
0.969,0.025
0.969,0.022
0.970,0.023
0.970,0.017
0.970,0.018
0.970,0.012
0.971,0.012
0.971,0.005
0.971,0.003
0.971,0.000
0.972,0.000
0.972,-0.008
0.972,-0.008
0.972,-0.013
0.973,-0.015
0.973,-0.020
0.973,-0.018
0.973,-0.025
0.974,-0.025
0.974,-0.027
0.974,-0.025
0.974,-0.028
0.975,-0.028
0.975,-0.035
0.975,-0.035
0.975,-0.038
0.976,-0.037
0.976,-0.038
0.976,-0.038
0.976,-0.037
0.977,-0.037
0.977,-0.028
0.977,-0.028
0.977,-0.018
0.978,-0.018
0.978,-0.007
0.978,-0.007
0.978,0.000
0.979,-0.002
0.979,-0.007
0.979,-0.007
0.979,-0.005
0.980,-0.007
0.980,-0.012
0.980,-0.010
0.980,-0.012
0.981,-0.010
0.981,-0.015
0.981,-0.015
0.981,-0.023
0.982,-0.023
0.982,-0.033
0.982,-0.033
0.982,-0.037
0.983,-0.037
0.983,-0.038
0.983,-0.037
0.983,-0.030
0.984,-0.032
0.984,-0.025
0.984,-0.025
0.984,-0.022
0.985,-0.023
0.985,-0.017
0.985,-0.018
0.985,-0.015
0.986,-0.017
0.986,-0.012
0.986,-0.012
0.986,-0.005
0.987,-0.005
0.987,-0.002
0.987,-0.002
0.987,-0.018
0.988,-0.020
0.988,-0.057
0.988,-0.067
0.988,-0.038
0.989,-0.035
0.989,0.052
0.989,0.055
0.989,0.067
0.990,0.062
0.990,0.043
0.990,0.043
0.990,0.028
0.991,0.028
0.991,0.007
0.991,0.007
0.991,-0.002
0.992,-0.003
0.992,-0.012
0.992,-0.015
0.992,-0.010
0.993,-0.010
0.993,0.000
0.993,0.000
0.993,0.010
0.994,0.010
0.994,0.028
0.994,0.030
0.994,0.050
0.995,0.050
0.995,0.087
0.995,0.088
0.995,0.153
0.996,0.157
0.996,0.217
0.996,0.215
0.996,-0.043
0.997,-0.050
0.997,-0.100
0.997,-0.088
0.997,-0.040
0.998,-0.033
0.998,0.070
0.998,0.073
0.998,0.095
0.999,0.090
0.999,0.045
0.999,0.042
0.999,-0.017
1.000,-0.018
1.000,-0.062
1.000,-0.063
1.000,-0.078
1.000,0.100
1.001,-0.080
1.001,-0.087
1.001,-0.085
1.002,-0.082
1.002,-0.082
1.002,-0.087
1.002,-0.088
1.002,-0.092
1.003,-0.090
1.003,-0.088
1.003,-0.088
1.004,-0.072
1.004,-0.070
1.004,-0.048
1.004,-0.048
1.004,-0.037
1.005,-0.037
1.005,-0.040
1.005,-0.040
1.006,-0.038
1.006,-0.038
1.006,-0.032
1.006,-0.030
1.006,-0.022
1.007,-0.022
1.007,-0.013
1.007,-0.013
1.008,-0.005
1.008,-0.003
1.008,0.008
1.008,0.008
1.008,0.020
1.009,0.020
1.009,0.033
1.009,0.033
1.010,0.042
1.010,0.040
1.010,0.023
1.010,0.023
1.010,-0.007
1.011,-0.007
1.011,-0.023
1.011,-0.027
1.012,-0.022
1.012,-0.020
1.012,0.000
1.012,0.000
1.012,0.017
1.013,0.017
1.013,0.033
1.013,0.035
1.014,0.068
1.014,0.068
1.014,0.095
1.014,0.092
1.014,0.040
1.015,0.160
1.015,-0.005
1.015,-0.027
1.016,0.172
1.016,0.127
1.016,-0.148
1.016,-0.135
1.016,-0.193
1.017,-0.143
1.017,-0.068
1.017,-0.067
1.018,-0.042
1.018,-0.040
1.018,-0.033
1.018,-0.033
1.018,-0.030
1.019,-0.032
1.019,-0.027
1.019,-0.028
1.020,-0.023
1.020,-0.023
1.020,-0.020
1.020,-0.022
1.020,-0.015
1.021,-0.017
1.021,-0.013
1.021,-0.015
1.022,-0.012
1.022,-0.013
1.022,-0.012
1.022,-0.012
1.022,-0.010
1.023,-0.008
1.023,-0.012
1.023,-0.010
1.024,-0.005
1.024,-0.007
1.024,-0.002
1.024,-0.003
1.024,0.002
1.025,0.002
1.025,0.010
1.025,0.012
1.026,0.020
1.026,0.020
1.026,0.025
1.026,0.025
1.026,0.022
1.027,0.022
1.027,0.007
1.027,0.007
1.028,-0.002
1.028,-0.003
1.028,0.000
1.028,-0.002
1.028,-0.005
1.029,-0.005
1.029,-0.008
1.029,-0.007
1.030,-0.008
1.030,-0.007
1.030,-0.012
1.030,-0.012
1.030,-0.005
1.031,-0.005
1.031,0.005
1.031,0.005
1.032,0.010
1.032,0.007
1.032,-0.027
1.032,-0.030
1.032,-0.088
1.033,-0.092
1.033,-0.068
1.033,-0.065
1.034,0.045
1.034,0.048
1.034,0.145
1.034,0.148
1.034,0.202
1.035,0.205
1.035,0.020
1.035,0.010
1.036,0.023
1.036,0.023
1.036,0.043
1.036,0.043
1.036,0.050
1.037,0.050
1.037,0.045
1.037,0.045
1.038,0.038
1.038,0.038
1.038,0.037
1.038,0.037
1.038,0.033
1.039,0.033
1.039,0.037
1.039,0.035
1.040,0.033
1.040,0.033
1.040,0.030
1.040,0.030
1.040,0.027
1.041,0.028
1.041,0.022
1.041,0.025
1.042,0.020
1.042,0.022
1.042,0.015
1.042,0.017
1.042,0.012
1.043,0.015
1.043,0.010
1.043,0.010
1.044,0.007
1.044,0.010
1.044,0.007
1.044,0.007
1.044,0.003
1.045,0.003
1.045,0.002
1.045,0.003
1.046,0.002
1.046,0.002
1.046,-0.002
1.046,0.002
1.046,0.000
1.047,0.002
1.047,-0.002
1.047,0.000
1.048,-0.010
1.048,-0.010
1.048,-0.020
1.048,-0.020
1.048,-0.023
1.049,-0.022
1.049,-0.015
1.049,-0.015
1.050,0.000
1.050,0.002
1.050,0.027
1.050,0.028
1.050,0.037
1.051,0.038
1.051,0.042
1.051,0.042
1.052,0.038
1.052,0.040
1.052,0.033
1.052,0.035
1.052,0.032
1.053,0.033
1.053,0.028
1.053,0.028
1.054,0.025
1.054,0.027
1.054,0.022
1.054,0.022
1.054,0.025
1.055,0.025
1.055,0.028
1.055,0.028
1.056,0.027
1.056,0.027
1.056,0.028
1.056,0.028
1.056,0.027
1.057,0.027
1.057,0.017
1.057,0.017
1.058,0.008
1.058,0.007
1.058,-0.007
1.058,-0.007
1.058,-0.018
1.059,-0.020
1.059,-0.028
1.059,-0.030
1.060,-0.033
1.060,-0.033
1.060,-0.037
1.060,-0.035
1.060,-0.030
1.061,-0.030
1.061,-0.027
1.061,-0.027
1.062,-0.023
1.062,-0.025
1.062,-0.022
1.062,-0.023
1.062,-0.020
1.063,-0.022
1.063,-0.018
1.063,-0.020
1.063,-0.025
1.064,-0.025
1.064,-0.033
1.064,-0.032
1.065,-0.035
1.065,-0.032
1.065,-0.030
1.065,-0.030
1.065,-0.023
1.066,-0.025
1.066,-0.028
1.066,-0.030
1.067,-0.027
1.067,-0.028
1.067,-0.023
1.067,-0.025
1.067,-0.020
1.068,-0.020
1.068,-0.017
1.068,-0.018
1.069,-0.017
1.069,-0.020
1.069,-0.025
1.069,-0.025
1.069,-0.028
1.070,-0.027
1.070,-0.023
1.070,-0.025
1.071,-0.018
1.071,-0.018
1.071,-0.012
1.071,-0.012
1.071,-0.010
1.072,-0.012
1.072,-0.005
1.072,-0.008
1.073,-0.005
1.073,-0.008
1.073,-0.005
1.073,-0.007
1.073,-0.002
1.074,-0.002
1.074,0.002
1.074,0.000
1.075,-0.002
1.075,0.000
1.075,-0.005
1.075,-0.005
1.075,-0.008
1.076,-0.008
1.076,-0.013
1.076,-0.013
1.077,-0.012
1.077,-0.012
1.077,-0.015
1.077,-0.013
1.077,-0.017
1.078,-0.017
1.078,-0.022
1.078,-0.022
1.079,-0.028
1.079,-0.028
1.079,-0.032
1.079,-0.030
1.079,-0.027
1.080,-0.028
1.080,-0.027
1.080,-0.027
1.081,-0.023
1.081,-0.025
1.081,-0.028
1.081,-0.028
1.081,-0.033
1.082,-0.032
1.082,-0.030
1.082,-0.030
1.083,-0.035
1.083,-0.035
1.083,-0.043
1.083,-0.043
1.083,-0.058
1.084,-0.058
1.084,-0.067
1.084,-0.062
1.085,-0.073
1.085,-0.077
1.085,-0.137
1.085,-0.135
1.085,-0.068
1.086,-0.065
1.086,-0.017
1.086,-0.017
1.087,-0.012
1.087,-0.010
1.087,0.043
1.087,0.045
1.087,0.055
1.088,0.043
1.088,0.012
1.088,0.012
1.089,0.003
1.089,0.007
1.089,-0.005
1.089,-0.005
1.089,-0.022
1.090,-0.022
1.090,-0.043
1.090,-0.043
1.091,-0.055
1.091,-0.055
1.091,-0.065
1.091,-0.065
1.091,-0.077
1.092,-0.077
1.092,-0.072
1.092,-0.072
1.093,-0.062
1.093,-0.062
1.093,-0.048
1.093,-0.048
1.093,-0.042
1.094,-0.042
1.094,-0.045
1.094,-0.042
1.095,-0.040
1.095,-0.040
1.095,-0.042
1.095,-0.040
1.095,-0.045
1.096,-0.043
1.096,-0.047
1.096,-0.047
1.097,-0.055
1.097,-0.055
1.097,-0.062
1.097,-0.063
1.097,-0.075
1.098,-0.075
1.098,-0.083
1.098,-0.083
1.099,-0.080
1.099,-0.080
1.099,-0.073
1.099,-0.073
1.099,-0.070
1.100,-0.070
1.100,-0.060
1.100,-0.060
1.101,-0.043
1.101,-0.042
1.101,-0.018
1.101,-0.018
1.101,0.002
1.102,0.005
1.102,-0.002
1.102,-0.002
1.103,0.000
1.103,0.000
1.103,-0.007
1.103,-0.007
1.103,-0.017
1.104,-0.017
1.104,-0.040
1.104,-0.040
1.105,-0.048
1.105,-0.048
1.105,-0.040
1.105,-0.040
1.105,-0.022
1.106,-0.022
1.106,-0.007
1.106,-0.007
1.107,0.008
1.107,0.008
1.107,0.035
1.107,0.037
1.107,0.063
1.108,0.065
1.108,0.002
1.108,-0.028
1.109,0.175
1.109,0.178
1.109,-0.002
1.109,0.228
1.109,-0.157
1.110,-0.152
1.110,-0.232
1.110,-0.223
1.111,-0.118
1.111,-0.115
1.111,-0.052
1.111,-0.050
1.111,-0.020
1.112,-0.017
1.112,-0.023
1.112,-0.023
1.113,-0.048
1.113,-0.048
1.113,-0.070
1.113,-0.070
1.113,-0.080
1.114,-0.073
1.114,-0.052
1.114,-0.050
1.115,-0.032
1.115,-0.032
1.115,-0.022
1.115,-0.022
1.115,-0.062
1.116,-0.065
1.116,-0.138
1.116,-0.142
1.117,-0.117
1.117,-0.113
1.117,0.018
1.117,0.023
1.117,0.133
1.118,0.137
1.118,0.202
1.118,0.192
1.119,0.213
1.119,0.208
1.119,-0.073
1.119,-0.120
1.119,-0.040
1.120,-0.037
1.120,0.018
1.120,0.020
1.121,0.070
1.121,0.078
1.121,0.068
1.121,0.067
1.121,0.017
1.122,0.015
1.122,-0.037
1.122,-0.038
1.123,-0.077
1.123,-0.078
1.123,-0.097
1.123,-0.097
1.123,-0.105
1.124,-0.103
1.124,-0.098
1.124,-0.098
1.125,-0.087
1.125,-0.085
1.125,-0.078
1.125,-0.078
1.125,-0.075
1.126,-0.075
1.126,-0.068
1.126,-0.067
1.127,-0.062
1.127,-0.062
1.127,-0.050
1.127,-0.050
1.127,-0.043
1.128,-0.045
1.128,-0.050
1.128,-0.052
1.129,-0.067
1.129,-0.068
1.129,-0.073
1.129,-0.073
1.129,-0.077
1.130,-0.077
1.130,-0.080
1.130,-0.078
1.131,-0.068
1.131,-0.068
1.131,-0.058
1.131,-0.058
1.131,-0.050
1.132,-0.050
1.132,-0.042
1.132,-0.042
1.133,-0.033
1.133,-0.033
1.133,-0.023
1.133,-0.023
1.133,-0.013
1.134,-0.013
1.134,-0.005
1.134,-0.005
1.135,0.007
1.135,0.007
1.135,0.013
1.135,0.015
1.135,0.047
1.136,0.050
1.136,0.113
1.136,0.108
1.137,-0.075
1.137,-0.072
1.137,-0.033
1.137,-0.030
1.137,-0.002
1.138,0.000
1.138,0.018
1.138,0.017
1.139,0.020
1.139,0.020
1.139,0.017
1.139,0.015
1.139,0.003
1.140,0.003
1.140,-0.003
1.140,-0.002
1.141,-0.007
1.141,-0.005
1.141,0.000
1.141,0.000
1.141,0.022
1.142,0.023
1.142,0.017
1.142,0.015
1.143,0.005
1.143,0.003
1.143,-0.012
1.143,-0.013
1.143,-0.023
1.144,-0.025
1.144,-0.032
1.144,-0.032
1.145,-0.033
1.145,-0.033
1.145,-0.032
1.145,-0.032
1.145,-0.035
1.146,-0.032
1.146,-0.035
1.146,-0.033
1.147,-0.035
1.147,-0.033
1.147,-0.028
1.147,-0.028
1.147,-0.017
1.148,-0.017
1.148,-0.007
1.148,-0.005
1.149,0.003
1.149,0.005
1.149,0.002
1.149,0.002
1.149,-0.005
1.150,-0.003
1.150,-0.005
1.150,-0.003
1.151,0.002
1.151,0.000
1.151,0.005
1.151,0.003
1.151,0.007
1.152,0.003
1.152,0.007
1.152,0.002
1.153,0.005
1.153,0.003
1.153,0.008
1.153,0.005
1.153,0.008
1.154,0.005
1.154,0.008
1.154,0.005
1.155,0.007
1.155,0.005
1.155,0.003
1.155,0.003
1.155,-0.003
1.156,-0.003
1.156,-0.012
1.156,-0.010
1.157,-0.015
1.157,-0.013
1.157,-0.022
1.157,-0.020
1.157,-0.025
1.158,-0.023
1.158,-0.027
1.158,-0.027
1.159,-0.032
1.159,-0.032
1.159,-0.037
1.159,-0.037
1.159,-0.032
1.160,-0.032
1.160,-0.027
1.160,-0.028
1.161,-0.023
1.161,-0.023
1.161,-0.015
1.161,-0.018
1.161,-0.013
1.162,-0.015
1.162,-0.012
1.162,-0.013
1.163,-0.008
1.163,-0.008
1.163,-0.012
1.163,-0.012
1.163,-0.015
1.164,-0.012
1.164,-0.018
1.164,-0.018
1.165,-0.020
1.165,-0.022
1.165,-0.027
1.165,-0.025
1.165,-0.030
1.166,-0.030
1.166,-0.035
1.166,-0.037
1.167,-0.033
1.167,-0.035
1.167,-0.033
1.167,-0.033
1.167,-0.037
1.168,-0.035
1.168,-0.038
1.168,-0.038
1.169,-0.042
1.169,-0.042
1.169,-0.043
1.169,-0.043
1.169,-0.042
1.170,-0.042
1.170,-0.038
1.170,-0.038
1.171,-0.035
1.171,-0.037
1.171,-0.038
1.171,-0.038
1.171,-0.043
1.172,-0.043
1.172,-0.047
1.172,-0.047
1.173,-0.043
1.173,-0.047
1.173,-0.043
1.173,-0.045
1.173,-0.042
1.174,-0.040
1.174,-0.042
1.174,-0.040
1.175,-0.038
1.175,-0.038
1.175,-0.043
1.175,-0.040
1.175,-0.043
1.176,-0.043
1.176,-0.045
1.176,-0.043
1.177,-0.042
1.177,-0.042
1.177,-0.032
1.177,-0.032
1.177,-0.023
1.178,-0.027
1.178,-0.023
1.178,-0.022
1.179,-0.025
1.179,-0.025
1.179,-0.033
1.179,-0.035
1.179,-0.042
1.180,-0.040
1.180,-0.045
1.180,-0.045
1.181,-0.047
1.181,-0.048
1.181,-0.043
1.181,-0.042
1.181,-0.048
1.182,-0.048
1.182,-0.067
1.182,-0.068
1.183,-0.108
1.183,-0.108
1.183,-0.120
1.183,-0.110
1.183,-0.020
1.184,-0.015
1.184,0.022
1.184,0.022
1.185,0.005
1.185,0.000
1.185,0.007
1.185,0.007
1.185,0.015
1.186,0.013
1.186,0.017
1.186,0.017
1.187,0.022
1.187,0.018
1.187,0.017
1.187,0.018
1.188,0.023
1.188,0.025
1.188,0.028
1.188,0.028
1.188,0.032
1.189,0.032
1.189,0.025
1.189,0.025
1.190,0.018
1.190,0.017
1.190,0.005
1.190,0.005
1.190,-0.007
1.191,-0.008
1.191,-0.017
1.191,-0.017
1.192,-0.018
1.192,-0.018
1.192,-0.008
1.192,-0.008
1.192,0.002
1.193,0.002
1.193,0.005
1.193,0.003
1.194,0.007
1.194,0.007
1.194,0.013
1.194,0.013
1.194,0.025
1.195,0.025
1.195,0.037
1.195,0.038
1.196,0.055
1.196,0.057
1.196,0.085
1.196,0.085
1.196,0.115
1.197,0.133
1.197,0.072
1.197,0.055
1.198,0.287
1.198,0.022
1.198,0.215
1.198,0.328
1.198,-0.148
1.199,-0.132
1.199,-0.218
1.199,-0.210
1.200,-0.118
1.200,-0.117
1.200,-0.073
1.200,-0.073
1.200,-0.068
1.201,-0.068
1.201,-0.055
1.201,-0.055
1.202,-0.088
1.202,-0.092
1.202,-0.145
1.202,-0.133
1.202,-0.018
1.203,-0.015
1.203,0.073
1.203,0.075
1.204,0.092
1.204,0.092
1.204,0.087
1.204,0.087
1.204,0.067
1.205,0.067
1.205,0.042
1.205,0.040
1.206,-0.027
1.206,-0.032
1.206,-0.102
1.206,-0.102
1.206,-0.028
1.207,-0.023
1.207,0.067
1.207,0.070
1.208,0.128
1.208,0.130
1.208,0.117
1.208,0.117
1.208,0.090
1.209,0.088
1.209,0.068
1.209,0.068
1.210,0.072
1.210,0.072
1.210,0.077
1.210,0.078
1.210,0.075
1.211,0.077
1.211,0.068
1.211,0.068
1.212,0.050
1.212,0.048
1.212,0.035
1.212,0.033
1.212,0.027
1.213,0.027
1.213,0.033
1.213,0.033
1.214,0.042
1.214,0.043
1.214,0.048
1.214,0.050
1.214,0.052
1.215,0.052
1.215,0.047
1.215,0.048
1.216,0.052
1.216,0.050
1.216,0.057
1.216,0.057
1.216,0.068
1.217,0.067
1.217,0.072
1.217,0.072
1.218,0.065
1.218,0.065
1.218,0.058
1.218,0.058
1.218,0.060
1.219,0.060
1.219,0.063
1.219,0.063
1.220,0.062
1.220,0.063
1.220,0.062
1.220,0.062
1.220,0.063
1.221,0.065
1.221,0.062
1.221,0.063
1.222,0.060
1.222,0.062
1.222,0.065
1.222,0.065
1.222,0.068
1.223,0.068
1.223,0.065
1.223,0.063
1.224,0.058
1.224,0.058
1.224,0.052
1.224,0.053
1.224,0.050
1.225,0.050
1.225,0.048
1.225,0.047
1.226,0.048
1.226,0.048
1.226,0.045
1.226,0.048
1.226,0.052
1.227,0.052
1.227,0.055
1.227,0.055
1.228,0.053
1.228,0.052
1.228,0.055
1.228,0.055
1.228,0.052
1.229,0.053
1.229,0.050
1.229,0.052
1.230,0.045
1.230,0.045
1.230,0.035
1.230,0.035
1.230,0.030
1.231,0.028
1.231,0.030
1.231,0.028
1.232,0.032
1.232,0.032
1.232,0.030
1.232,0.030
1.232,0.033
1.233,0.035
1.233,0.032
1.233,0.032
1.234,0.037
1.234,0.033
1.234,0.038
1.234,0.038
1.234,0.040
1.235,0.038
1.235,0.033
1.235,0.032
1.236,0.043
1.236,0.045
1.236,0.095
1.236,0.098
1.236,0.138
1.237,0.092
1.237,-0.072
1.237,-0.067
1.238,-0.033
1.238,-0.032
1.238,-0.005
1.238,-0.005
1.238,0.020
1.239,0.022
1.239,0.055
1.239,0.057
1.240,0.113
1.240,0.115
1.240,0.202
1.240,0.195
1.240,0.248
1.241,0.242
1.241,0.017
1.241,0.022
1.242,0.162
1.242,0.143
1.242,0.175
1.242,0.180
1.242,0.227
1.243,0.228
1.243,0.200
1.243,0.197
1.244,0.113
1.244,0.110
1.244,0.020
1.244,0.017
1.244,-0.053
1.245,-0.055
1.245,-0.092
1.245,-0.093
1.246,-0.112
1.246,-0.113
1.246,-0.118
1.246,-0.120
1.246,-0.123
1.247,-0.123
1.247,-0.130
1.247,-0.130
1.248,-0.123
1.248,-0.123
1.248,-0.120
1.248,-0.118
1.248,-0.113
1.249,-0.112
1.249,-0.105
1.249,-0.105
1.250,-0.093
1.250,-0.093
1.250,-0.083
1.250,-0.083
1.250,-0.070
1.251,0.100
1.251,-0.068
1.251,-0.060
1.252,-0.060
1.252,-0.047
1.252,-0.047
1.252,-0.038
1.252,-0.038
1.253,-0.032
1.253,-0.032
1.253,-0.020
1.254,-0.020
1.254,-0.010
1.254,-0.012
1.254,-0.007
1.254,-0.007
1.255,-0.003
1.255,-0.003
1.255,-0.010
1.256,-0.012
1.256,-0.015
1.256,-0.017
1.256,-0.012
1.256,-0.013
1.257,-0.008
1.257,-0.010
1.257,-0.007
1.258,-0.008
1.258,-0.015
1.258,-0.013
1.258,-0.018
1.258,-0.017
1.259,-0.022
1.259,-0.022
1.259,-0.027
1.260,-0.028
1.260,-0.035
1.260,-0.035
1.260,-0.043
1.260,-0.043
1.261,-0.052
1.261,-0.050
1.261,-0.053
1.262,-0.050
1.262,-0.053
1.262,-0.050
1.262,-0.043
1.262,-0.043
1.263,-0.037
1.263,-0.037
1.263,-0.028
1.264,-0.028
1.264,-0.037
1.264,-0.037
1.264,-0.045
1.264,-0.047
1.265,-0.053
1.265,-0.052
1.265,-0.057
1.266,-0.057
1.266,-0.052
1.266,-0.052
1.266,-0.038
1.266,-0.037
1.267,-0.020
1.267,-0.020
1.267,0.000
1.268,0.000
1.268,0.005
1.268,0.002
1.268,-0.032
1.268,-0.033
1.269,-0.085
1.269,-0.095
1.269,-0.068
1.270,-0.063
1.270,0.007
1.270,0.013
1.270,0.003
1.270,0.002
1.271,-0.018
1.271,-0.018
1.271,-0.015
1.272,-0.017
1.272,-0.028
1.272,-0.030
1.272,-0.038
1.272,-0.037
1.273,-0.047
1.273,-0.045
1.273,-0.050
1.274,-0.048
1.274,-0.052
1.274,-0.052
1.274,-0.055
1.274,-0.055
1.275,-0.057
1.275,-0.058
1.275,-0.055
1.276,-0.055
1.276,-0.052
1.276,-0.052
1.276,-0.055
1.276,-0.052
1.277,-0.053
1.277,-0.052
1.277,-0.050
1.278,-0.052
1.278,-0.053
1.278,-0.055
1.278,-0.060
1.278,-0.060
1.279,-0.063
1.279,-0.063
1.279,-0.072
1.280,-0.070
1.280,-0.075
1.280,-0.075
1.280,-0.082
1.280,-0.083
1.281,-0.088
1.281,-0.088
1.281,-0.095
1.282,-0.093
1.282,-0.090
1.282,-0.090
1.282,-0.093
1.282,-0.092
1.283,-0.097
1.283,-0.095
1.283,-0.093
1.284,-0.092
1.284,-0.098
1.284,-0.098
1.284,-0.093
1.284,-0.097
1.285,-0.092
1.285,-0.092
1.285,-0.085
1.286,-0.087
1.286,-0.078
1.286,-0.077
1.286,-0.052
1.286,-0.050
1.287,-0.007
1.287,-0.063
1.287,0.133
1.288,0.227
1.288,-0.035
1.288,0.248
1.288,-0.212
1.288,-0.225
1.289,-0.332
1.289,-0.333
1.289,-0.255
1.290,-0.252
1.290,-0.192
1.290,-0.182
1.290,-0.195
1.290,-0.197
1.291,-0.267
1.291,-0.270
1.291,-0.317
1.292,-0.310
1.292,-0.213
1.292,-0.207
1.292,-0.107
1.292,-0.103
1.293,-0.043
1.293,-0.042
1.293,-0.060
1.294,-0.062
1.294,-0.095
1.294,-0.097
1.294,-0.112
1.294,-0.112
1.295,-0.115
1.295,-0.115
1.295,-0.113
1.296,-0.113
1.296,-0.118
1.296,-0.120
1.296,-0.117
1.296,-0.118
1.297,-0.123
1.297,-0.122
1.297,-0.118
1.298,-0.118
1.298,-0.115
1.298,-0.115
1.298,-0.108
1.298,-0.110
1.299,-0.102
1.299,-0.102
1.299,-0.087
1.300,-0.085
1.300,-0.080
1.300,-0.080
1.300,-0.085
1.300,-0.085
1.301,-0.087
1.301,-0.083
1.301,-0.085
1.302,-0.083
1.302,-0.092
1.302,-0.090
1.302,-0.098
1.302,-0.098
1.303,-0.103
1.303,-0.100
1.303,-0.103
1.304,-0.105
1.304,-0.102
1.304,-0.102
1.304,-0.097
1.304,-0.095
1.305,-0.098
1.305,-0.097
1.305,-0.102
1.306,-0.100
1.306,-0.105
1.306,-0.100
1.306,-0.127
1.306,-0.128
1.307,-0.217
1.307,-0.217
1.307,-0.133
1.308,-0.127
1.308,-0.022
1.308,-0.018
1.308,0.007
1.308,0.007
1.309,-0.012
1.309,-0.012
1.309,-0.032
1.310,-0.032
1.310,-0.043
1.310,-0.043
1.310,-0.048
1.310,-0.048
1.311,-0.052
1.311,-0.052
1.311,-0.055
1.312,-0.055
1.312,-0.058
1.312,-0.058
1.312,-0.053
1.312,-0.057
1.313,-0.053
1.313,-0.053
1.313,-0.045
1.313,-0.043
1.314,-0.037
1.314,-0.037
1.314,-0.035
1.315,-0.038
1.315,-0.052
1.315,-0.052
1.315,-0.065
1.315,-0.065
1.316,-0.073
1.316,-0.075
1.316,-0.072
1.317,-0.072
1.317,-0.057
1.317,-0.057
1.317,-0.040
1.317,-0.038
1.318,-0.020
1.318,-0.018
1.318,-0.005
1.319,-0.005
1.319,0.002
1.319,0.000
1.319,0.003
1.319,0.002
1.320,0.005
1.320,0.003
1.320,0.012
1.321,0.013
1.321,0.025
1.321,0.022
1.321,0.025
1.321,0.022
1.322,0.012
1.322,0.010
1.322,-0.007
1.323,-0.008
1.323,-0.020
1.323,-0.020
1.323,-0.028
1.323,-0.028
1.324,-0.023
1.324,-0.023
1.324,-0.017
1.325,-0.015
1.325,-0.012
1.325,-0.010
1.325,0.005
1.325,0.005
1.326,0.017
1.326,0.018
1.326,0.022
1.327,0.022
1.327,0.020
1.327,0.020
1.327,0.017
1.327,0.015
1.328,0.018
1.328,0.017
1.328,0.023
1.329,0.023
1.329,0.030
1.329,0.030
1.329,0.032
1.329,0.032
1.330,0.027
1.330,0.027
1.330,0.023
1.331,0.025
1.331,0.028
1.331,0.028
1.331,0.030
1.331,0.032
1.332,0.028
1.332,0.028
1.332,0.025
1.333,0.027
1.333,0.032
1.333,0.032
1.333,0.037
1.333,0.037
1.334,0.050
1.334,0.050
1.334,0.065
1.335,0.063
1.335,0.068
1.335,0.067
1.335,0.063
1.335,0.063
1.336,0.067
1.336,0.065
1.336,0.070
1.337,0.070
1.337,0.082
1.337,0.083
1.337,0.093
1.337,0.093
1.338,0.097
1.338,0.095
1.338,0.093
1.339,0.093
1.339,0.088
1.339,0.090
1.339,0.085
1.339,0.085
1.340,0.082
1.340,0.082
1.340,0.080
1.341,0.078
1.341,0.083
1.341,0.082
1.341,0.080
1.341,0.078
1.342,0.075
1.342,0.077
1.342,0.073
1.343,0.073
1.343,0.080
1.343,0.080
1.343,0.092
1.343,0.092
1.344,0.097
1.344,0.095
1.344,0.098
1.345,0.095
1.345,0.102
1.345,0.103
1.345,0.120
1.345,0.122
1.346,0.175
1.346,0.217
1.346,0.102
1.347,0.083
1.347,0.008
1.347,0.017
1.347,0.053
1.347,0.055
1.348,0.078
1.348,0.078
1.348,0.088
1.349,0.090
1.349,0.095
1.349,0.093
1.349,0.100
1.349,0.098
1.350,0.108
1.350,0.110
1.350,0.107
1.351,0.112
1.351,0.120
1.351,0.120
1.351,0.123
1.351,0.120
1.352,0.123
1.352,0.122
1.352,0.120
1.353,0.122
1.353,0.128
1.353,0.128
1.353,0.138
1.353,0.138
1.354,0.157
1.354,0.157
1.354,0.178
1.355,0.180
1.355,0.220
1.355,0.222
1.355,0.278
1.355,0.260
1.356,0.313
1.356,0.190
1.356,0.340
1.357,0.352
1.357,0.125
1.357,0.182
1.357,0.270
1.357,0.272
1.358,0.293
1.358,0.280
1.358,0.212
1.359,0.208
1.359,0.113
1.359,0.110
1.359,0.035
1.359,0.032
1.360,-0.002
1.360,-0.002
1.360,-0.013
1.361,-0.013
1.361,-0.022
1.361,-0.020
1.361,-0.015
1.361,-0.017
1.362,-0.010
1.362,-0.010
1.362,-0.032
1.363,-0.035
1.363,-0.088
1.363,-0.090
1.363,-0.113
1.363,-0.105
1.364,-0.025
1.364,-0.022
1.364,0.003
1.365,0.005
1.365,0.003
1.365,0.002
1.365,0.027
1.365,0.027
1.366,0.042
1.366,0.037
1.366,0.042
1.367,0.042
1.367,0.050
1.367,0.050
1.367,0.057
1.367,0.057
1.368,0.063
1.368,0.062
1.368,0.057
1.369,0.057
1.369,0.052
1.369,0.053
1.369,0.055
1.369,0.057
1.370,0.053
1.370,0.053
1.370,0.040
1.371,0.040
1.371,0.030
1.371,0.033
1.371,0.037
1.371,0.037
1.372,0.040
1.372,0.040
1.372,0.045
1.373,0.045
1.373,0.038
1.373,0.037
1.373,0.027
1.373,0.027
1.374,0.023
1.374,0.027
1.374,0.042
1.375,0.042
1.375,0.060
1.375,0.062
1.375,0.080
1.375,0.080
1.376,0.095
1.376,0.095
1.376,0.108
1.377,0.108
1.377,0.117
1.377,0.118
1.377,0.132
1.377,0.133
1.378,0.142
1.378,0.133
1.378,0.062
1.379,0.053
1.379,-0.108
1.379,-0.107
1.379,0.418
1.379,0.190
1.380,0.460
1.380,0.442
1.380,-0.020
1.381,0.000
1.381,-0.098
1.381,-0.088
1.381,-0.032
1.381,-0.032
1.382,-0.010
1.382,-0.010
1.382,-0.002
1.383,-0.002
1.383,0.005
1.383,0.003
1.383,0.012
1.383,0.012
1.384,0.017
1.384,0.017
1.384,0.022
1.385,0.022
1.385,0.023
1.385,0.023
1.385,0.027
1.385,0.027
1.386,0.025
1.386,0.027
1.386,0.030
1.387,0.030
1.387,0.027
1.387,0.027
1.387,0.032
1.387,0.030
1.388,0.027
1.388,0.028
1.388,0.022
1.389,0.022
1.389,0.023
1.389,0.022
1.389,0.025
1.389,0.023
1.390,0.027
1.390,0.025
1.390,0.028
1.391,0.028
1.391,0.030
1.391,0.028
1.391,0.027
1.391,0.027
1.392,0.023
1.392,0.023
1.392,0.027
1.393,0.025
1.393,0.028
1.393,0.027
1.393,0.030
1.393,0.028
1.394,0.032
1.394,0.032
1.394,0.037
1.395,0.037
1.395,0.033
1.395,0.035
1.395,0.033
1.395,0.035
1.396,0.032
1.396,0.032
1.396,0.033
1.397,0.033
1.397,0.035
1.397,0.032
1.397,0.038
1.397,0.038
1.398,0.035
1.398,0.037
1.398,0.033
1.399,0.033
1.399,0.030
1.399,0.032
1.399,0.028
1.399,0.030
1.400,0.023
1.400,0.023
1.400,0.017
1.401,0.017
1.401,0.005
1.401,0.005
1.401,0.000
1.401,0.002
1.402,0.003
1.402,0.003
1.402,0.000
1.403,0.000
1.403,-0.002
1.403,-0.003
1.403,0.002
1.403,0.002
1.404,-0.003
1.404,-0.003
1.404,0.000
1.405,-0.002
1.405,0.000
1.405,0.000
1.405,0.008
1.405,0.007
1.406,0.017
1.406,0.017
1.406,0.030
1.407,0.030
1.407,0.040
1.407,0.038
1.407,0.033
1.407,0.033
1.408,0.030
1.408,0.030
1.408,0.033
1.409,0.033
1.409,0.032
1.409,0.030
1.409,0.033
1.409,0.032
1.410,0.035
1.410,0.035
1.410,0.043
1.411,0.043
1.411,0.050
1.411,0.052
1.411,0.047
1.411,0.047
1.412,0.028
1.412,0.028
1.412,0.003
1.413,0.003
1.413,-0.012
1.413,-0.012
1.413,-0.015
1.413,-0.013
1.414,-0.003
1.414,-0.003
1.414,0.003
1.415,0.002
1.415,0.007
1.415,0.008
1.415,0.003
1.415,0.005
1.416,0.000
1.416,0.000
1.416,-0.010
1.417,-0.003
1.417,-0.012
1.417,-0.012
1.417,-0.083
1.417,-0.087
1.418,-0.123
1.418,-0.095
1.418,0.017
1.419,0.022
1.419,0.087
1.419,0.090
1.419,0.085
1.419,0.083
1.420,0.070
1.420,0.070
1.420,0.060
1.421,0.058
1.421,0.047
1.421,0.047
1.421,0.025
1.421,0.025
1.422,0.007
1.422,0.005
1.422,-0.005
1.423,-0.008
1.423,-0.003
1.423,-0.003
1.423,0.012
1.423,0.012
1.424,0.025
1.424,0.025
1.424,0.030
1.425,0.030
1.425,0.027
1.425,0.027
1.425,0.033
1.425,0.032
1.426,0.038
1.426,0.037
1.426,0.040
1.427,0.037
1.427,0.042
1.427,0.043
1.427,0.040
1.427,0.040
1.428,0.025
1.428,0.023
1.428,0.000
1.429,0.000
1.429,-0.013
1.429,-0.015
1.429,-0.013
1.429,-0.015
1.430,0.000
1.430,0.002
1.430,0.023
1.431,0.023
1.431,0.028
1.431,0.027
1.431,0.020
1.431,0.020
1.432,0.015
1.432,0.015
1.432,0.012
1.433,0.012
1.433,0.013
1.433,0.012
1.433,0.008
1.433,0.005
1.434,0.008
1.434,0.008
1.434,0.005
1.435,0.007
1.435,0.008
1.435,0.008
1.435,0.012
1.435,0.008
1.436,0.010
1.436,0.008
1.436,0.010
1.437,0.010
1.437,0.013
1.437,0.013
1.437,0.015
1.438,0.015
1.438,0.010
1.438,0.012
1.438,0.015
1.438,0.015
1.439,0.022
1.439,0.020
1.439,0.025
1.440,0.023
1.440,0.017
1.440,0.017
1.440,0.008
1.440,0.007
1.441,0.000
1.441,0.000
1.441,0.003
1.442,0.003
1.442,0.017
1.442,0.017
1.442,0.025
1.442,0.025
1.443,0.032
1.443,0.032
1.443,0.042
1.444,0.042
1.444,0.092
1.444,0.115
1.444,-0.077
1.444,-0.082
1.445,-0.057
1.445,-0.053
1.445,-0.015
1.446,-0.015
1.446,0.007
1.446,0.007
1.446,0.012
1.446,0.013
1.447,0.012
1.447,0.012
1.447,0.008
1.448,0.008
1.448,0.012
1.448,0.010
1.448,0.013
1.448,0.013
1.449,0.012
1.449,0.012
1.449,0.008
1.450,0.008
1.450,-0.005
1.450,-0.005
1.450,-0.010
1.450,-0.010
1.451,-0.005
1.451,-0.003
1.451,0.007
1.452,0.007
1.452,0.018
1.452,0.018
1.452,0.012
1.452,0.012
1.453,0.010
1.453,0.008
1.453,0.000
1.454,0.002
1.454,-0.003
1.454,-0.003
1.454,-0.002
1.454,-0.005
1.455,-0.010
1.455,-0.008
1.455,-0.015
1.456,-0.013
1.456,-0.015
1.456,-0.015
1.456,-0.013
1.456,-0.015
1.457,-0.017
1.457,-0.015
1.457,-0.018
1.458,-0.020
1.458,-0.017
1.458,-0.017
1.458,-0.020
1.458,-0.020
1.459,-0.017
1.459,-0.018
1.459,-0.012
1.460,-0.010
1.460,-0.005
1.460,-0.005
1.460,-0.025
1.460,-0.025
1.461,-0.072
1.461,-0.073
1.461,-0.093
1.462,-0.085
1.462,-0.003
1.462,0.002
1.462,0.030
1.462,0.027
1.463,0.003
1.463,0.002
1.463,0.012
1.464,0.013
1.464,0.027
1.464,0.027
1.464,0.018
1.464,0.022
1.465,0.027
1.465,0.028
1.465,0.020
1.466,0.018
1.466,-0.028
1.466,-0.032
1.466,-0.105
1.466,-0.105
1.467,-0.035
1.467,-0.030
1.467,0.122
1.468,0.128
1.468,0.277
1.468,0.270
1.468,0.322
1.468,0.310
1.469,0.097
1.469,0.108
1.469,0.295
1.470,0.243
1.470,0.278
1.470,0.280
1.470,0.305
1.470,0.305
1.471,0.150
1.471,0.140
1.471,0.437
1.472,0.273
1.472,0.020
1.472,0.282
1.472,-0.262
1.472,-0.265
1.473,-0.397
1.473,-0.383
1.473,-0.293
1.474,-0.292
1.474,-0.238
1.474,-0.237
1.474,-0.202
1.474,-0.202
1.475,-0.175
1.475,-0.175
1.475,-0.155
1.476,-0.155
1.476,-0.135
1.476,-0.133
1.476,-0.113
1.476,-0.113
1.477,-0.100
1.477,-0.100
1.477,-0.093
1.478,-0.093
1.478,-0.082
1.478,-0.083
1.478,-0.078
1.478,-0.082
1.479,-0.088
1.479,-0.088
1.479,-0.095
1.480,-0.095
1.480,-0.087
1.480,-0.087
1.480,-0.082
1.480,-0.082
1.481,-0.068
1.481,-0.068
1.481,-0.053
1.482,-0.053
1.482,-0.042
1.482,-0.042
1.482,-0.035
1.482,-0.035
1.483,-0.037
1.483,-0.035
1.483,-0.032
1.484,-0.032
1.484,-0.030
1.484,-0.030
1.484,-0.025
1.484,-0.027
1.485,-0.023
1.485,-0.022
1.485,-0.015
1.486,-0.015
1.486,-0.012
1.486,-0.012
1.486,-0.013
1.486,-0.013
1.487,-0.017
1.487,-0.015
1.487,-0.017
1.488,-0.015
1.488,-0.007
1.488,-0.008
1.488,0.002
1.488,0.002
1.489,0.005
1.489,0.005
1.489,0.007
1.490,0.007
1.490,0.003
1.490,0.003
1.490,0.000
1.490,0.000
1.491,0.005
1.491,0.003
1.491,0.012
1.492,0.012
1.492,0.017
1.492,0.018
1.492,0.015
1.492,0.015
1.493,0.017
1.493,0.017
1.493,0.008
1.494,0.008
1.494,0.002
1.494,0.002
1.494,-0.005
1.494,-0.005
1.495,-0.003
1.495,-0.003
1.495,-0.007
1.496,-0.005
1.496,-0.012
1.496,-0.012
1.496,-0.010
1.496,-0.010
1.497,-0.015
1.497,-0.013
1.497,-0.017
1.498,-0.015
1.498,-0.022
1.498,-0.020
1.498,-0.010
1.498,-0.010
1.499,-0.002
1.499,-0.002
1.499,0.002
1.500,0.002
1.500,-0.002
1.500,-0.003
1.500,-0.008
1.500,-0.012
1.501,-0.007
1.501,0.100
1.501,-0.007
1.502,-0.010
1.502,-0.008
1.502,-0.013
1.502,-0.013
1.502,-0.023
1.503,-0.023
1.503,-0.033
1.503,-0.033
1.504,-0.038
1.504,-0.038
1.504,-0.042
1.504,-0.043
1.504,-0.038
1.505,-0.040
1.505,-0.028
1.505,-0.027
1.506,-0.012
1.506,-0.012
1.506,0.008
1.506,0.008
1.506,0.017
1.507,0.012
1.507,0.015
1.507,0.017
1.508,0.030
1.508,0.030
1.508,0.048
1.508,0.050
1.508,0.058
1.509,0.057
1.509,0.040
1.509,0.038
1.510,0.008
1.510,0.007
1.510,-0.013
1.510,-0.015
1.510,-0.018
1.511,-0.018
1.511,-0.017
1.511,-0.015
1.512,-0.005
1.512,-0.005
1.512,0.000
1.512,-0.002
1.512,0.010
1.513,0.010
1.513,0.020
1.513,0.020
1.514,0.030
1.514,0.027
1.514,-0.035
1.514,-0.040
1.514,-0.093
1.515,-0.075
1.515,0.033
1.515,0.037
1.516,0.098
1.516,0.100
1.516,0.087
1.516,0.085
1.516,0.062
1.517,0.060
1.517,0.043
1.517,0.042
1.518,0.035
1.518,0.035
1.518,0.033
1.518,0.037
1.518,0.033
1.519,0.032
1.519,0.028
1.519,0.028
1.520,0.020
1.520,0.018
1.520,0.015
1.520,0.015
1.520,0.010
1.521,0.010
1.521,0.013
1.521,0.015
1.522,0.022
1.522,0.023
1.522,0.030
1.522,0.027
1.522,0.033
1.523,0.032
1.523,0.035
1.523,0.035
1.524,0.032
1.524,0.030
1.524,0.032
1.524,0.032
1.524,0.028
1.525,0.030
1.525,0.027
1.525,0.028
1.526,0.025
1.526,0.027
1.526,0.022
1.526,0.022
1.526,0.015
1.527,0.017
1.527,0.008
1.527,0.008
1.528,0.002
1.528,0.000
1.528,0.003
1.528,0.003
1.528,0.000
1.529,0.003
1.529,0.000
1.529,0.002
1.530,-0.002
1.530,-0.003
1.530,0.002
1.530,0.002
1.530,0.005
1.531,0.002
1.531,0.010
1.531,0.008
1.532,0.012
1.532,0.012
1.532,0.017
1.532,0.015
1.532,0.020
1.533,0.020
1.533,0.018
1.533,0.018
1.534,0.028
1.534,0.030
1.534,0.042
1.534,0.043
1.534,0.052
1.535,0.053
1.535,0.090
1.535,0.093
1.536,0.148
1.536,0.140
1.536,-0.058
1.536,-0.058
1.536,-0.023
1.537,-0.022
1.537,0.007
1.537,0.008
1.538,0.030
1.538,0.030
1.538,0.038
1.538,0.040
1.538,0.043
1.539,0.043
1.539,0.037
1.539,0.037
1.540,0.017
1.540,0.015
1.540,-0.003
1.540,-0.005
1.540,-0.015
1.541,-0.018
1.541,-0.013
1.541,-0.013
1.542,-0.007
1.542,-0.005
1.542,-0.002
1.542,-0.002
1.542,0.008
1.543,0.008
1.543,0.017
1.543,0.017
1.544,0.022
1.544,0.018
1.544,0.022
1.544,0.018
1.544,0.022
1.545,0.022
1.545,0.020
1.545,0.022
1.546,0.023
1.546,0.022
1.546,0.028
1.546,0.027
1.546,0.030
1.547,0.030
1.547,0.037
1.547,0.037
1.548,0.040
1.548,0.038
1.548,0.037
1.548,0.037
1.548,0.033
1.549,0.035
1.549,0.027
1.549,0.027
1.550,0.025
1.550,0.023
1.550,0.017
1.550,0.017
1.550,0.010
1.551,0.010
1.551,-0.017
1.551,-0.018
1.552,-0.095
1.552,-0.100
1.552,-0.145
1.552,-0.135
1.552,-0.035
1.553,-0.030
1.553,0.065
1.553,0.068
1.554,0.122
1.554,0.120
1.554,0.085
1.554,0.082
1.554,0.005
1.555,0.002
1.555,-0.045
1.555,-0.050
1.556,-0.005
1.556,-0.002
1.556,0.060
1.556,0.063
1.556,0.055
1.557,0.053
1.557,0.040
1.557,0.042
1.558,0.038
1.558,0.037
1.558,0.020
1.558,0.020
1.558,0.013
1.559,0.013
1.559,0.010
1.559,0.010
1.560,0.012
1.560,0.010
1.560,0.012
1.560,0.008
1.560,0.012
1.561,0.012
1.561,0.022
1.561,0.022
1.562,0.030
1.562,0.030
1.562,0.033
1.562,0.032
1.562,0.025
1.563,0.027
1.563,0.020
1.563,0.020
1.563,0.023
1.564,0.023
1.564,0.027
1.564,0.027
1.565,0.030
1.565,0.032
1.565,0.038
1.565,0.038
1.565,0.068
1.566,0.070
1.566,0.105
1.566,0.105
1.567,0.013
1.567,0.012
1.567,0.392
1.567,0.050
1.567,0.272
1.568,0.352
1.568,-0.143
1.568,-0.145
1.569,-0.248
1.569,-0.237
1.569,-0.155
1.569,-0.152
1.569,-0.105
1.570,-0.105
1.570,-0.088
1.570,-0.088
1.571,-0.075
1.571,-0.077
1.571,-0.063
1.571,-0.063
1.571,-0.048
1.572,-0.048
1.572,-0.038
1.572,-0.038
1.573,-0.030
1.573,-0.032
1.573,-0.027
1.573,-0.025
1.573,-0.027
1.574,-0.025
1.574,-0.015
1.574,-0.015
1.575,-0.010
1.575,-0.010
1.575,-0.007
1.575,-0.005
1.575,-0.008
1.576,-0.008
1.576,-0.003
1.576,-0.003
1.577,0.002
1.577,0.003
1.577,0.000
1.577,0.000
1.577,-0.003
1.578,-0.003
1.578,-0.010
1.578,-0.010
1.579,-0.017
1.579,-0.017
1.579,-0.028
1.579,-0.028
1.579,-0.037
1.580,-0.037
1.580,-0.043
1.580,-0.042
1.581,-0.043
1.581,-0.042
1.581,-0.043
1.581,-0.042
1.581,-0.045
1.582,-0.042
1.582,-0.047
1.582,-0.047
1.583,-0.048
1.583,-0.052
1.583,-0.048
1.583,-0.050
1.583,-0.048
1.584,-0.050
1.584,-0.047
1.584,-0.050
1.585,-0.045
1.585,-0.043
1.585,-0.030
1.585,-0.028
1.585,-0.022
1.586,-0.022
1.586,-0.025
1.586,-0.022
1.587,-0.023
1.587,-0.022
1.587,-0.023
1.587,-0.022
1.587,-0.007
1.588,-0.007
1.588,0.010
1.588,0.010
1.589,0.033
1.589,0.037
1.589,0.082
1.589,0.087
1.589,0.122
1.590,0.130
1.590,-0.052
1.590,-0.105
1.591,0.052
1.591,0.063
1.591,0.220
1.591,0.175
1.591,0.160
1.592,0.160
1.592,0.118
1.592,0.117
1.593,0.032
1.593,0.027
1.593,-0.060
1.593,-0.063
1.593,-0.128
1.594,-0.130
1.594,-0.167
1.594,-0.168
1.595,-0.180
1.595,-0.182
1.595,-0.185
1.595,-0.182
1.595,-0.177
1.596,-0.178
1.596,-0.168
1.596,-0.168
1.597,-0.163
1.597,-0.163
1.597,-0.160
1.597,-0.160
1.597,-0.157
1.598,-0.157
1.598,-0.148
1.598,-0.148
1.599,-0.145
1.599,-0.147
1.599,-0.150
1.599,-0.152
1.599,-0.145
1.600,-0.145
1.600,-0.123
1.600,-0.122
1.601,-0.103
1.601,-0.102
1.601,-0.078
1.601,-0.078
1.601,-0.048
1.602,-0.047
1.602,-0.038
1.602,-0.037
1.603,-0.045
1.603,-0.045
1.603,-0.060
1.603,-0.060
1.603,-0.070
1.604,-0.070
1.604,-0.072
1.604,-0.070
1.605,-0.058
1.605,-0.057
1.605,-0.032
1.605,-0.030
1.605,-0.028
1.606,-0.030
1.606,-0.042
1.606,-0.042
1.607,-0.053
1.607,-0.053
1.607,-0.050
1.607,-0.050
1.607,-0.043
1.608,-0.043
1.608,-0.035
1.608,-0.037
1.609,-0.027
1.609,-0.027
1.609,-0.023
1.609,-0.022
1.609,-0.020
1.610,-0.020
1.610,-0.018
1.610,-0.018
1.611,-0.015
1.611,-0.017
1.611,-0.010
1.611,-0.012
1.611,-0.013
1.612,-0.013
1.612,-0.012
1.612,-0.013
1.613,-0.015
1.613,-0.013
1.613,-0.012
1.613,-0.010
1.613,-0.012
1.614,-0.012
1.614,-0.013
1.614,-0.013
1.615,-0.015
1.615,-0.013
1.615,-0.015
1.615,-0.013
1.615,-0.012
1.616,-0.015
1.616,-0.012
1.616,-0.013
1.617,-0.008
1.617,-0.008
1.617,-0.005
1.617,-0.005
1.617,-0.002
1.618,-0.003
1.618,0.000
1.618,-0.002
1.619,-0.005
1.619,-0.002
1.619,0.000
1.619,-0.002
1.619,0.002
1.620,0.002
1.620,0.003
1.620,0.003
1.621,-0.002
1.621,0.000
1.621,-0.005
1.621,-0.007
1.621,-0.010
1.622,-0.002
1.622,-0.023
1.622,-0.027
1.623,-0.115
1.623,-0.115
1.623,-0.033
1.623,-0.028
1.623,0.082
1.624,0.083
1.624,0.102
1.624,0.098
1.625,0.062
1.625,0.060
1.625,0.023
1.625,0.020
1.625,-0.005
1.626,-0.005
1.626,-0.020
1.626,-0.020
1.627,-0.027
1.627,-0.027
1.627,-0.025
1.627,-0.028
1.627,-0.020
1.628,-0.018
1.628,-0.015
1.628,-0.015
1.629,-0.020
1.629,-0.020
1.629,-0.022
1.629,-0.020
1.629,-0.015
1.630,-0.015
1.630,-0.002
1.630,-0.002
1.631,0.008
1.631,0.007
1.631,0.002
1.631,0.002
1.631,-0.002
1.632,-0.002
1.632,-0.008
1.632,-0.005
1.633,-0.008
1.633,-0.003
1.633,0.002
1.633,0.003
1.633,0.010
1.634,0.010
1.634,0.017
1.634,0.018
1.635,0.022
1.635,0.023
1.635,0.018
1.635,0.020
1.635,0.015
1.636,0.018
1.636,0.023
1.636,0.027
1.637,0.020
1.637,0.018
1.637,-0.003
1.637,-0.007
1.637,-0.187
1.638,-0.228
1.638,-0.123
1.638,-0.115
1.639,0.038
1.639,0.043
1.639,0.123
1.639,0.128
1.639,0.115
1.640,0.113
1.640,0.075
1.640,0.073
1.641,0.033
1.641,0.032
1.641,-0.002
1.641,-0.002
1.641,-0.015
1.642,-0.013
1.642,-0.007
1.642,-0.007
1.643,0.002
1.643,0.002
1.643,0.007
1.643,0.007
1.643,0.008
1.644,0.008
1.644,0.000
1.644,0.000
1.645,-0.008
1.645,-0.008
1.645,-0.012
1.645,-0.012
1.645,-0.010
1.646,-0.012
1.646,-0.008
1.646,-0.012
1.647,-0.007
1.647,-0.007
1.647,-0.015
1.647,-0.017
1.647,-0.058
1.648,-0.060
1.648,-0.085
1.648,-0.087
1.649,-0.023
1.649,-0.020
1.649,0.038
1.649,0.043
1.649,0.030
1.650,0.030
1.650,0.012
1.650,0.013
1.651,0.015
1.651,0.015
1.651,-0.002
1.651,-0.003
1.651,0.000
1.652,-0.003
1.652,-0.002
1.652,-0.002
1.653,0.005
1.653,0.003
1.653,0.007
1.653,0.005
1.653,0.000
1.654,0.000
1.654,-0.007
1.654,-0.007
1.655,-0.013
1.655,-0.013
1.655,-0.017
1.655,-0.017
1.655,-0.020
1.656,-0.018
1.656,-0.020
1.656,-0.018
1.657,-0.020
1.657,-0.020
1.657,-0.017
1.657,-0.020
1.657,-0.017
1.658,-0.018
1.658,-0.020
1.658,-0.018
1.659,-0.017
1.659,-0.018
1.659,-0.017
1.659,-0.017
1.659,-0.018
1.660,-0.015
1.660,-0.020
1.660,-0.018
1.661,-0.023
1.661,-0.023
1.661,-0.025
1.661,-0.023
1.661,-0.027
1.662,-0.027
1.662,-0.023
1.662,-0.023
1.663,-0.027
1.663,-0.023
1.663,-0.025
1.663,-0.025
1.663,-0.032
1.664,-0.032
1.664,-0.033
1.664,-0.033
1.665,-0.035
1.665,-0.035
1.665,-0.038
1.665,-0.037
1.665,-0.033
1.666,-0.033
1.666,-0.025
1.666,-0.025
1.667,-0.018
1.667,-0.020
1.667,-0.012
1.667,-0.012
1.667,-0.007
1.668,-0.007
1.668,-0.003
1.668,-0.005
1.669,0.000
1.669,0.000
1.669,0.008
1.669,0.007
1.669,0.020
1.670,0.020
1.670,0.043
1.670,0.045
1.671,0.080
1.671,0.092
1.671,0.020
1.671,-0.035
1.671,0.267
1.672,0.465
1.672,0.140
1.672,0.355
1.673,-0.142
1.673,-0.157
1.673,-0.277
1.673,-0.293
1.673,-0.225
1.674,-0.222
1.674,-0.153
1.674,-0.152
1.675,-0.118
1.675,-0.117
1.675,-0.108
1.675,-0.108
1.675,-0.102
1.676,-0.103
1.676,-0.110
1.676,-0.112
1.677,-0.118
1.677,-0.118
1.677,-0.123
1.677,-0.122
1.677,-0.125
1.678,-0.125
1.678,-0.118
1.678,-0.118
1.679,-0.110
1.679,-0.110
1.679,-0.112
1.679,-0.112
1.679,-0.115
1.680,-0.115
1.680,-0.117
1.680,-0.115
1.681,-0.118
1.681,-0.120
1.681,-0.117
1.681,-0.117
1.681,-0.108
1.682,-0.108
1.682,-0.093
1.682,-0.093
1.683,-0.062
1.683,-0.060
1.683,-0.025
1.683,-0.025
1.683,-0.010
1.684,-0.010
1.684,-0.005
1.684,-0.007
1.685,-0.005
1.685,-0.007
1.685,-0.010
1.685,-0.008
1.685,-0.012
1.686,-0.012
1.686,-0.017
1.686,-0.017
1.687,-0.032
1.687,-0.033
1.687,-0.043
1.687,-0.042
1.688,-0.045
1.688,-0.045
1.688,-0.045
1.688,-0.043
1.688,-0.047
1.689,-0.047
1.689,-0.042
1.689,-0.043
1.690,-0.035
1.690,-0.035
1.690,-0.022
1.690,-0.022
1.690,0.002
1.691,0.003
1.691,0.040
1.691,0.042
1.692,0.115
1.692,0.100
1.692,0.157
1.692,0.155
1.692,-0.018
1.693,-0.017
1.693,0.287
1.693,0.282
1.694,0.235
1.694,0.235
1.694,0.212
1.694,0.210
1.694,0.130
1.695,0.125
1.695,0.003
1.695,-0.002
1.696,-0.112
1.696,-0.115
1.696,-0.187
1.696,-0.188
1.696,-0.228
1.697,-0.230
1.697,-0.243
1.697,-0.245
1.698,-0.252
1.698,-0.250
1.698,-0.258
1.698,-0.257
1.698,-0.268
1.699,-0.267
1.699,-0.270
1.699,-0.268
1.700,-0.255
1.700,-0.253
1.700,-0.220
1.700,-0.218
1.700,-0.182
1.701,-0.180
1.701,-0.143
1.701,-0.143
1.702,-0.122
1.702,-0.122
1.702,-0.112
1.702,-0.112
1.702,-0.100
1.703,-0.100
1.703,-0.090
1.703,-0.090
1.704,-0.080
1.704,-0.080
1.704,-0.067
1.704,-0.067
1.704,-0.060
1.705,-0.060
1.705,-0.053
1.705,-0.052
1.706,-0.047
1.706,-0.045
1.706,-0.048
1.706,-0.048
1.706,-0.057
1.707,-0.055
1.707,-0.065
1.707,-0.065
1.708,-0.072
1.708,-0.070
1.708,-0.063
1.708,-0.063
1.708,-0.048
1.709,-0.048
1.709,-0.033
1.709,-0.033
1.710,-0.017
1.710,-0.017
1.710,-0.008
1.710,-0.010
1.710,-0.003
1.711,-0.003
1.711,-0.005
1.711,-0.005
1.712,0.002
1.712,0.002
1.712,0.000
1.712,0.000
1.712,0.003
1.713,0.002
1.713,0.007
1.713,0.005
1.714,0.013
1.714,0.012
1.714,0.017
1.714,0.017
1.714,0.020
1.715,0.020
1.715,0.022
1.715,0.018
1.716,0.022
1.716,0.022
1.716,0.023
1.716,0.023
1.716,0.020
1.717,0.020
1.717,0.023
1.717,0.020
1.718,0.025
1.718,0.023
1.718,0.027
1.718,0.025
1.718,0.032
1.719,0.030
1.719,0.033
1.719,0.030
1.720,0.020
1.720,0.020
1.720,0.012
1.720,0.012
1.720,0.008
1.721,0.010
1.721,0.005
1.721,0.005
1.722,-0.005
1.722,-0.007
1.722,-0.003
1.722,-0.003
1.722,0.010
1.723,0.010
1.723,0.020
1.723,0.022
1.724,0.035
1.724,0.035
1.724,0.043
1.724,0.043
1.724,0.042
1.725,0.042
1.725,0.048
1.725,0.048
1.726,0.053
1.726,0.053
1.726,0.030
1.726,0.028
1.726,-0.055
1.727,-0.058
1.727,-0.130
1.727,-0.128
1.728,-0.038
1.728,-0.032
1.728,0.088
1.728,0.092
1.728,0.147
1.729,0.150
1.729,0.083
1.729,0.077
1.730,-0.022
1.730,-0.018
1.730,0.082
1.730,0.087
1.730,0.222
1.731,0.265
1.731,0.123
1.731,0.110
1.732,0.037
1.732,0.038
1.732,0.027
1.732,0.025
1.732,-0.008
1.733,-0.018
1.733,-0.007
1.733,-0.003
1.734,0.078
1.734,0.082
1.734,0.112
1.734,0.108
1.734,0.092
1.735,0.090
1.735,0.093
1.735,0.093
1.736,0.087
1.736,0.087
1.736,0.068
1.736,0.072
1.736,0.067
1.737,0.067
1.737,0.053
1.737,0.053
1.738,0.047
1.738,0.048
1.738,0.042
1.738,0.042
1.738,0.043
1.739,0.042
1.739,0.038
1.739,0.040
1.740,0.037
1.740,0.038
1.740,0.035
1.740,0.035
1.740,0.040
1.741,0.040
1.741,0.042
1.741,0.040
1.742,0.047
1.742,0.047
1.742,0.048
1.742,0.048
1.742,0.045
1.743,0.043
1.743,0.047
1.743,0.045
1.744,0.042
1.744,0.040
1.744,0.045
1.744,0.043
1.744,0.045
1.745,0.047
1.745,0.043
1.745,0.045
1.746,0.042
1.746,0.043
1.746,0.040
1.746,0.040
1.746,0.035
1.747,0.038
1.747,0.035
1.747,0.037
1.748,0.035
1.748,0.038
1.748,0.035
1.748,0.037
1.748,0.033
1.749,0.033
1.749,0.028
1.749,0.027
1.750,0.020
1.750,0.018
1.750,0.017
1.750,0.017
1.750,0.015
1.751,0.017
1.751,0.018
1.751,0.100
1.752,0.017
1.752,0.020
1.752,0.020
1.752,0.023
1.752,0.022
1.753,0.027
1.753,0.027
1.753,0.032
1.754,0.032
1.754,0.035
1.754,0.035
1.754,0.042
1.754,0.042
1.755,0.047
1.755,0.048
1.755,0.055
1.756,0.055
1.756,0.065
1.756,0.065
1.756,0.073
1.756,0.075
1.757,0.093
1.757,0.093
1.757,0.125
1.758,0.128
1.758,0.153
1.758,0.125
1.758,0.018
1.758,0.085
1.759,0.528
1.759,0.137
1.759,0.382
1.760,0.312
1.760,-0.128
1.760,-0.127
1.760,-0.208
1.760,-0.185
1.761,-0.100
1.761,-0.098
1.761,-0.055
1.762,-0.053
1.762,-0.035
1.762,-0.035
1.762,-0.023
1.762,-0.022
1.763,-0.010
1.763,-0.010
1.763,-0.002
1.764,-0.002
1.764,0.007
1.764,0.007
1.764,0.013
1.764,0.010
1.765,0.015
1.765,0.013
1.765,0.015
1.766,0.013
1.766,0.017
1.766,0.015
1.766,0.017
1.766,0.015
1.767,0.017
1.767,0.017
1.767,0.020
1.768,0.018
1.768,0.023
1.768,0.023
1.768,0.028
1.768,0.030
1.769,0.027
1.769,0.027
1.769,0.025
1.770,0.023
1.770,0.022
1.770,0.023
1.770,0.027
1.770,0.025
1.771,0.027
1.771,0.027
1.771,0.022
1.772,0.023
1.772,0.020
1.772,0.020
1.772,0.023
1.772,0.022
1.773,0.027
1.773,0.030
1.773,0.023
1.774,0.023
1.774,0.013
1.774,0.013
1.774,0.005
1.774,0.005
1.775,-0.002
1.775,-0.002
1.775,-0.010
1.776,-0.010
1.776,-0.027
1.776,-0.028
1.776,-0.033
1.776,-0.033
1.777,-0.027
1.777,-0.027
1.777,-0.012
1.778,-0.012
1.778,0.002
1.778,0.003
1.778,0.013
1.778,0.013
1.779,0.017
1.779,0.013
1.779,0.005
1.780,0.005
1.780,-0.002
1.780,-0.002
1.780,0.003
1.780,0.003
1.781,0.012
1.781,0.012
1.781,0.020
1.782,0.020
1.782,0.022
1.782,0.020
1.782,0.017
1.782,0.018
1.783,0.013
1.783,0.013
1.783,0.008
1.784,0.008
1.784,-0.002
1.784,-0.002
1.784,-0.015
1.784,-0.015
1.785,-0.020
1.785,-0.018
1.785,-0.022
1.786,-0.023
1.786,-0.027
1.786,-0.025
1.786,-0.015
1.786,-0.015
1.787,-0.002
1.787,0.000
1.787,0.015
1.788,0.015
1.788,0.028
1.788,0.028
1.788,0.045
1.788,0.045
1.789,0.073
1.789,0.073
1.789,0.098
1.790,0.100
1.790,0.125
1.790,0.125
1.790,0.160
1.790,0.180
1.791,0.140
1.791,0.182
1.791,0.075
1.792,0.035
1.792,0.132
1.792,0.160
1.792,0.523
1.792,0.422
1.793,0.307
1.793,0.303
1.793,0.193
1.794,0.190
1.794,0.070
1.794,0.065
1.794,-0.052
1.794,-0.057
1.795,-0.147
1.795,-0.150
1.795,-0.197
1.796,-0.197
1.796,-0.220
1.796,-0.220
1.796,-0.223
1.796,-0.222
1.797,-0.208
1.797,-0.207
1.797,-0.185
1.798,-0.183
1.798,-0.158
1.798,-0.158
1.798,-0.127
1.798,-0.125
1.799,-0.103
1.799,-0.103
1.799,-0.090
1.800,-0.088
1.800,-0.077
1.800,-0.075
1.800,-0.070
1.800,-0.072
1.801,-0.068
1.801,-0.068
1.801,-0.063
1.802,-0.068
1.802,-0.065
1.802,-0.065
1.802,-0.055
1.802,-0.055
1.803,-0.048
1.803,-0.048
1.803,-0.033
1.804,-0.033
1.804,-0.020
1.804,-0.018
1.804,-0.015
1.804,-0.013
1.805,-0.017
1.805,-0.017
1.805,-0.007
1.806,-0.007
1.806,0.002
1.806,0.002
1.806,0.012
1.806,0.012
1.807,0.022
1.807,0.022
1.807,0.032
1.808,0.035
1.808,0.013
1.808,0.010
1.808,-0.085
1.808,-0.090
1.809,-0.120
1.809,-0.107
1.809,0.003
1.810,0.010
1.810,0.120
1.810,0.123
1.810,0.190
1.810,0.190
1.811,0.165
1.811,0.163
1.811,0.123
1.812,0.123
1.812,0.098
1.812,0.097
1.812,0.087
1.812,0.087
1.813,0.080
1.813,0.078
1.813,0.073
1.813,0.073
1.814,0.068
1.814,0.068
1.814,0.072
1.815,0.070
1.815,0.065
1.815,0.065
1.815,0.068
1.815,0.067
1.816,0.070
1.816,0.068
1.816,0.070
1.817,0.067
1.817,0.070
1.817,0.067
1.817,0.072
1.817,0.070
1.818,0.052
1.818,0.050
1.818,0.003
1.819,0.000
1.819,-0.032
1.819,-0.033
1.819,0.015
1.819,0.018
1.820,0.097
1.820,0.098
1.820,0.107
1.821,0.103
1.821,0.093
1.821,0.093
1.821,0.098
1.821,0.093
1.822,0.068
1.822,0.067
1.822,0.055
1.823,0.055
1.823,0.050
1.823,0.050
1.823,0.047
1.823,0.048
1.824,0.050
1.824,0.047
1.824,0.050
1.825,0.050
1.825,0.065
1.825,0.065
1.825,0.120
1.825,0.147
1.826,0.025
1.826,0.012
1.826,-0.047
1.827,-0.035
1.827,0.010
1.827,0.012
1.827,0.037
1.827,0.037
1.828,0.048
1.828,0.048
1.828,0.050
1.829,0.050
1.829,0.045
1.829,0.045
1.829,0.040
1.829,0.040
1.830,0.030
1.830,0.030
1.830,0.018
1.831,0.017
1.831,0.010
1.831,0.013
1.831,-0.040
1.831,-0.045
1.832,-0.110
1.832,-0.097
1.832,0.003
1.833,0.010
1.833,0.103
1.833,0.110
1.833,0.103
1.833,0.103
1.834,0.062
1.834,0.058
1.834,0.018
1.835,0.017
1.835,0.002
1.835,0.002
1.835,-0.010
1.835,-0.010
1.836,-0.012
1.836,-0.008
1.836,-0.005
1.837,-0.005
1.837,0.000
1.837,0.000
1.837,0.003
1.837,0.002
1.838,0.005
1.838,0.005
1.838,0.008
1.839,0.007
1.839,0.010
1.839,0.012
1.839,0.007
1.839,0.007
1.840,0.005
1.840,0.007
1.840,0.002
1.841,0.002
1.841,-0.003
1.841,-0.002
1.841,-0.005
1.841,-0.005
1.842,-0.003
1.842,-0.003
1.842,0.000
1.843,0.000
1.843,0.003
1.843,0.002
1.843,0.005
1.843,0.005
1.844,0.008
1.844,0.007
1.844,0.010
1.845,0.010
1.845,0.005
1.845,0.005
1.845,-0.003
1.845,-0.005
1.846,-0.012
1.846,-0.010
1.846,-0.013
1.847,-0.013
1.847,-0.017
1.847,-0.017
1.847,-0.015
1.847,-0.015
1.848,-0.017
1.848,-0.013
1.848,-0.017
1.849,-0.015
1.849,-0.018
1.849,-0.018
1.849,-0.017
1.849,-0.017
1.850,-0.018
1.850,-0.017
1.850,-0.018
1.851,-0.017
1.851,-0.020
1.851,-0.020
1.851,-0.023
1.851,-0.023
1.852,-0.020
1.852,-0.020
1.852,-0.023
1.853,-0.020
1.853,-0.025
1.853,-0.020
1.853,-0.018
1.853,-0.018
1.854,-0.017
1.854,-0.017
1.854,-0.013
1.855,-0.013
1.855,-0.008
1.855,-0.010
1.855,-0.013
1.855,-0.012
1.856,-0.017
1.856,-0.017
1.856,-0.025
1.857,-0.022
1.857,-0.027
1.857,-0.027
1.857,-0.030
1.857,-0.030
1.858,-0.023
1.858,-0.022
1.858,-0.015
1.859,-0.015
1.859,-0.007
1.859,-0.007
1.859,0.005
1.859,0.007
1.860,0.018
1.860,0.020
1.860,0.028
1.861,0.028
1.861,0.033
1.861,0.032
1.861,0.037
1.861,0.035
1.862,0.047
1.862,0.048
1.862,0.088
1.863,0.100
1.863,0.028
1.863,-0.015
1.863,0.337
1.863,0.473
1.864,0.062
1.864,0.323
1.864,-0.048
1.865,-0.075
1.865,-0.263
1.865,-0.277
1.865,-0.208
1.865,-0.203
1.866,-0.132
1.866,-0.130
1.866,-0.102
1.867,-0.102
1.867,-0.092
1.867,-0.093
1.867,-0.095
1.867,-0.092
1.868,-0.085
1.868,-0.085
1.868,-0.075
1.869,-0.075
1.869,-0.080
1.869,-0.078
1.869,-0.087
1.869,-0.087
1.870,-0.092
1.870,-0.093
1.870,-0.088
1.871,-0.088
1.871,-0.070
1.871,-0.070
1.871,-0.048
1.871,-0.047
1.872,-0.038
1.872,-0.038
1.872,-0.033
1.873,-0.035
1.873,-0.037
1.873,-0.035
1.873,-0.038
1.873,-0.038
1.874,-0.047
1.874,-0.045
1.874,-0.050
1.875,-0.047
1.875,-0.050
1.875,-0.047
1.875,-0.030
1.875,-0.030
1.876,-0.023
1.876,-0.023
1.876,-0.018
1.877,-0.020
1.877,-0.017
1.877,-0.018
1.877,-0.015
1.877,-0.015
1.878,-0.002
1.878,-0.002
1.878,0.005
1.879,0.005
1.879,0.015
1.879,0.017
1.879,0.033
1.879,0.033
1.880,0.043
1.880,0.043
1.880,0.037
1.881,0.038
1.881,0.032
1.881,0.028
1.881,0.032
1.881,0.028
1.882,0.015
1.882,0.015
1.882,0.000
1.883,0.002
1.883,-0.002
1.883,-0.002
1.883,-0.003
1.883,-0.003
1.884,0.002
1.884,0.002
1.884,0.008
1.885,0.007
1.885,-0.002
1.885,0.000
1.885,-0.005
1.885,-0.005
1.886,-0.012
1.886,-0.012
1.886,-0.010
1.887,-0.012
1.887,-0.008
1.887,-0.012
1.887,-0.007
1.887,-0.007
1.888,-0.010
1.888,-0.012
1.888,-0.008
1.889,-0.008
1.889,0.003
1.889,0.003
1.889,0.020
1.889,0.022
1.890,0.042
1.890,0.042
1.890,0.068
1.891,0.068
1.891,0.087
1.891,0.085
1.891,0.030
1.891,0.025
1.892,-0.070
1.892,-0.097
1.892,-0.072
1.893,-0.068
1.893,0.062
1.893,0.067
1.893,0.152
1.893,0.153
1.894,0.185
1.894,0.183
1.894,0.167
1.895,0.167
1.895,0.160
1.895,0.162
1.895,0.173
1.895,0.173
1.896,0.207
1.896,0.208
1.896,0.258
1.897,0.233
1.897,0.305
1.897,0.270
1.897,0.518
1.897,0.515
1.898,0.292
1.898,0.383
1.898,0.410
1.899,0.392
1.899,0.355
1.899,0.352
1.899,0.242
1.899,0.237
1.900,0.105
1.900,0.100
1.900,-0.005
1.901,-0.010
1.901,-0.082
1.901,-0.083
1.901,-0.123
1.901,-0.125
1.902,-0.132
1.902,-0.132
1.902,-0.125
1.903,-0.125
1.903,-0.118
1.903,-0.117
1.903,-0.103
1.903,-0.102
1.904,-0.088
1.904,-0.087
1.904,-0.072
1.905,-0.072
1.905,-0.053
1.905,-0.053
1.905,-0.040
1.905,-0.040
1.906,-0.057
1.906,-0.057
1.906,-0.082
1.907,-0.087
1.907,-0.055
1.907,-0.052
1.907,0.048
1.907,0.050
1.908,0.075
1.908,0.075
1.908,0.065
1.909,0.067
1.909,0.075
1.909,0.078
1.909,0.073
1.909,0.073
1.910,0.068
1.910,0.070
1.910,0.073
1.911,0.072
1.911,0.067
1.911,0.070
1.911,0.073
1.911,0.075
1.912,0.087
1.912,0.087
1.912,0.090
1.913,0.088
1.913,0.090
1.913,0.088
1.913,0.092
1.913,0.087
1.914,0.080
1.914,0.080
1.914,0.073
1.915,0.073
1.915,0.070
1.915,0.072
1.915,0.077
1.915,0.077
1.916,0.087
1.916,0.087
1.916,0.125
1.917,0.128
1.917,0.180
1.917,0.178
1.917,-0.015
1.917,-0.015
1.918,0.022
1.918,0.025
1.918,0.063
1.919,0.065
1.919,0.085
1.919,0.085
1.919,0.097
1.919,0.097
1.920,0.102
1.920,0.102
1.920,0.105
1.921,0.102
1.921,0.105
1.921,0.103
1.921,0.105
1.921,0.103
1.922,0.105
1.922,0.103
1.922,0.100
1.923,0.102
1.923,0.098
1.923,0.100
1.923,0.098
1.923,0.100
1.924,0.095
1.924,0.097
1.924,0.092
1.925,0.093
1.925,0.090
1.925,0.093
1.925,0.088
1.925,0.090
1.926,0.087
1.926,0.087
1.926,0.082
1.927,0.082
1.927,0.078
1.927,0.080
1.927,0.075
1.927,0.077
1.928,0.075
1.928,0.075
1.928,0.080
1.929,0.077
1.929,0.083
1.929,0.083
1.929,0.088
1.929,0.088
1.930,0.093
1.930,0.090
1.930,0.095
1.931,0.095
1.931,0.097
1.931,0.093
1.931,0.098
1.931,0.098
1.932,0.093
1.932,0.095
1.932,0.092
1.933,0.092
1.933,0.093
1.933,0.090
1.933,0.092
1.933,0.088
1.934,0.090
1.934,0.087
1.934,0.090
1.935,0.088
1.935,0.090
1.935,0.090
1.935,0.087
1.935,0.088
1.936,0.085
1.936,0.085
1.936,0.083
1.937,0.083
1.937,0.080
1.937,0.080
1.937,0.078
1.938,0.077
1.938,0.072
1.938,0.072
1.938,0.067
1.938,0.070
1.939,0.065
1.939,0.067
1.939,0.063
1.940,0.067
1.940,0.063
1.940,0.065
1.940,0.067
1.940,0.065
1.941,0.067
1.941,0.067
1.941,0.070
1.942,0.070
1.942,0.068
1.942,0.070
1.942,0.068
1.942,0.070
1.943,0.065
1.943,0.067
1.943,0.062
1.944,0.063
1.944,0.060
1.944,0.058
1.944,0.068
1.944,0.068
1.945,0.037
1.945,0.033
1.945,-0.030
1.946,-0.022
1.946,0.070
1.946,0.075
1.946,0.162
1.946,0.163
1.947,0.170
1.947,0.162
1.947,0.128
1.948,0.127
1.948,0.100
1.948,0.100
1.948,0.082
1.948,0.082
1.949,0.075
1.949,0.073
1.949,0.068
1.950,0.068
1.950,0.065
1.950,0.070
1.950,0.067
1.950,0.068
1.951,0.072
1.951,0.073
1.951,0.088
1.952,0.090
1.952,0.130
1.952,0.138
1.952,0.058
1.952,-0.003
1.953,0.308
1.953,0.548
1.953,0.215
1.954,0.397
1.954,-0.040
1.954,-0.057
1.954,-0.155
1.954,-0.180
1.955,-0.123
1.955,-0.120
1.955,-0.053
1.956,-0.052
1.956,-0.020
1.956,-0.020
1.956,-0.005
1.956,-0.005
1.957,0.007
1.957,0.007
1.957,0.012
1.958,0.012
1.958,0.008
1.958,0.012
1.958,0.013
1.958,0.012
1.959,0.010
1.959,0.012
1.959,0.008
1.960,0.008
1.960,0.012
1.960,0.010
1.960,0.017
1.960,0.017
1.961,0.023
1.961,0.022
1.961,0.027
1.962,0.027
1.962,0.035
1.962,0.035
1.962,0.047
1.962,0.047
1.963,0.052
1.963,0.050
1.963,0.055
1.964,0.055
1.964,0.062
1.964,0.060
1.964,0.047
1.964,0.047
1.965,0.028
1.965,0.027
1.965,0.008
1.966,0.007
1.966,-0.003
1.966,-0.007
1.966,-0.003
1.966,-0.005
1.967,0.002
1.967,0.003
1.967,0.008
1.968,0.010
1.968,0.017
1.968,0.017
1.968,0.023
1.968,0.023
1.969,0.022
1.969,0.022
1.969,0.023
1.970,0.023
1.970,0.027
1.970,0.027
1.970,0.032
1.970,0.030
1.971,0.033
1.971,0.030
1.971,0.028
1.972,0.028
1.972,0.027
1.972,0.027
1.972,0.023
1.972,0.025
1.973,0.028
1.973,0.027
1.973,0.030
1.974,0.027
1.974,0.032
1.974,0.028
1.974,0.025
1.974,0.025
1.975,0.018
1.975,0.018
1.975,0.013
1.976,0.015
1.976,0.010
1.976,0.012
1.976,0.015
1.976,0.017
1.977,0.023
1.977,0.023
1.977,0.030
1.978,0.030
1.978,0.037
1.978,0.037
1.978,0.040
1.978,0.037
1.979,0.040
1.979,0.038
1.979,0.037
1.980,0.035
1.980,0.028
1.980,0.028
1.980,0.032
1.980,0.028
1.981,0.033
1.981,0.033
1.981,0.035
1.982,0.037
1.982,0.032
1.982,0.032
1.982,0.023
1.982,0.022
1.983,0.015
1.983,0.015
1.983,0.003
1.984,0.005
1.984,-0.002
1.984,-0.002
1.984,0.002
1.984,0.000
1.985,0.008
1.985,0.008
1.985,0.013
1.986,0.013
1.986,0.018
1.986,0.022
1.986,0.017
1.986,0.018
1.987,-0.002
1.987,-0.003
1.987,-0.075
1.988,-0.080
1.988,-0.145
1.988,-0.143
1.988,-0.065
1.988,-0.058
1.989,0.047
1.989,0.050
1.989,0.118
1.990,0.122
1.990,0.107
1.990,0.105
1.990,0.065
1.990,0.063
1.991,0.033
1.991,0.032
1.991,0.018
1.992,0.018
1.992,0.017
1.992,0.018
1.992,0.015
1.992,0.017
1.993,0.020
1.993,0.020
1.993,0.015
1.994,0.013
1.994,0.000
1.994,0.000
1.994,-0.007
1.994,-0.007
1.995,-0.010
1.995,-0.010
1.995,-0.008
1.996,-0.012
1.996,-0.008
1.996,-0.010
1.996,-0.013
1.996,-0.013
1.997,-0.008
1.997,-0.008
1.997,-0.002
1.998,-0.002
1.998,0.003
1.998,0.003
1.998,-0.007
1.998,-0.008
1.999,-0.030
1.999,-0.030
1.999,-0.055
2.000,-0.057
2.000,-0.073
2.000,-0.077
2.000,-0.068
2.001,-0.067
2.001,-0.043
2.001,-0.043
2.001,-0.017
2.002,0.100
2.002,-0.015
2.002,-0.002
2.002,0.000
2.002,0.010
2.003,0.010
2.003,0.027
2.003,0.027
2.003,0.020
2.004,0.020
2.004,-0.017
2.004,-0.018
2.005,-0.077
2.005,-0.078
2.005,-0.097
2.005,-0.093
2.006,-0.008
2.006,-0.003
2.006,0.058
2.006,0.060
2.006,0.043
2.007,0.043
2.007,0.032
2.007,0.032
2.007,0.012
2.008,0.012
2.008,-0.008
2.008,-0.008
2.009,-0.015
2.009,-0.015
2.009,-0.023
2.009,-0.023
2.010,-0.018
2.010,-0.017
2.010,-0.008
2.010,-0.007
2.010,0.003
2.011,0.005
2.011,0.023
2.011,0.025
2.011,0.050
2.012,0.052
2.012,0.092
2.012,0.095
2.013,0.163
2.013,0.135
2.013,0.172
2.013,0.157
2.014,-0.007
2.014,0.000
2.014,0.350
2.014,0.435
2.014,0.362
2.015,0.362
2.015,0.320
2.015,0.310
2.015,0.022
2.016,0.017
2.016,-0.065
2.016,-0.068
2.017,-0.135
2.017,-0.138
2.017,-0.185
2.017,-0.185
2.018,-0.215
2.018,-0.217
2.018,-0.228
2.018,-0.230
2.018,-0.227
2.019,-0.228
2.019,-0.218
2.019,-0.218
2.019,-0.207
2.020,-0.207
2.020,-0.192
2.020,-0.192
2.021,-0.177
2.021,-0.177
2.021,-0.162
2.021,-0.162
2.022,-0.150
2.022,-0.150
2.022,-0.133
2.022,-0.133
2.022,-0.118
2.023,-0.120
2.023,-0.107
2.023,-0.107
2.023,-0.100
2.024,-0.100
2.024,-0.097
2.024,-0.098
2.025,-0.097
2.025,-0.098
2.025,-0.095
2.025,-0.097
2.026,-0.092
2.026,-0.093
2.026,-0.088
2.026,-0.087
2.026,-0.080
2.027,-0.078
2.027,-0.082
2.027,-0.080
2.027,-0.083
2.028,-0.080
2.028,-0.075
2.028,-0.077
2.029,-0.080
2.029,-0.080
2.029,-0.092
2.029,-0.093
2.030,-0.100
2.030,-0.097
2.030,-0.075
2.030,-0.073
2.030,-0.045
2.031,-0.043
2.031,-0.010
2.031,-0.008
2.031,0.007
2.032,0.007
2.032,-0.005
2.032,-0.007
2.033,-0.030
2.033,-0.030
2.033,-0.040
2.033,-0.040
2.034,-0.042
2.034,-0.042
2.034,-0.038
2.034,-0.040
2.034,-0.033
2.035,-0.033
2.035,-0.028
2.035,-0.028
2.035,-0.022
2.036,-0.023
2.036,-0.015
2.036,-0.015
2.037,-0.008
2.037,-0.008
2.037,0.000
2.037,0.000
2.038,0.023
2.038,0.025
2.038,0.052
2.038,0.055
2.038,-0.047
2.039,-0.053
2.039,0.338
2.039,0.272
2.039,-0.007
2.040,0.188
2.040,-0.322
2.040,-0.310
2.041,-0.347
2.041,-0.307
2.041,-0.127
2.041,-0.120
2.042,-0.058
2.042,-0.053
2.042,-0.062
2.042,-0.062
2.042,-0.070
2.043,-0.072
2.043,-0.067
2.043,-0.067
2.043,-0.057
2.044,-0.058
2.044,-0.052
2.044,-0.048
2.045,-0.052
2.045,-0.048
2.045,-0.045
2.045,-0.047
2.046,-0.042
2.046,-0.042
2.046,-0.038
2.046,-0.038
2.046,-0.035
2.047,-0.037
2.047,-0.033
2.047,-0.035
2.047,-0.030
2.048,-0.030
2.048,-0.027
2.048,-0.027
2.049,-0.033
2.049,-0.033
2.049,-0.038
2.049,-0.038
2.050,-0.047
2.050,-0.045
2.050,-0.050
2.050,-0.050
2.050,-0.055
2.051,-0.055
2.051,-0.060
2.051,-0.058
2.051,-0.062
2.052,-0.060
2.052,-0.063
2.052,-0.062
2.053,-0.057
2.053,-0.057
2.053,-0.048
2.053,-0.047
2.054,-0.038
2.054,-0.038
2.054,-0.042
2.054,-0.040
2.054,-0.035
2.055,-0.038
2.055,-0.035
2.055,-0.035
2.055,-0.032
2.056,-0.032
2.056,-0.030
2.056,-0.030
2.057,-0.037
2.057,-0.035
2.057,-0.042
2.057,-0.042
2.058,-0.055
2.058,-0.055
2.058,-0.065
2.058,-0.065
2.058,-0.077
2.059,-0.077
2.059,-0.082
2.059,-0.082
2.059,-0.078
2.060,-0.078
2.060,-0.072
2.060,-0.070
2.061,-0.055
2.061,-0.055
2.061,-0.050
2.061,-0.050
2.062,-0.047
2.062,-0.048
2.062,-0.045
2.062,-0.047
2.062,-0.050
2.063,-0.048
2.063,-0.045
2.063,-0.048
2.063,-0.035
2.064,-0.035
2.064,-0.025
2.064,-0.028
2.064,-0.092
2.065,-0.095
2.065,-0.182
2.065,-0.182
2.066,-0.148
2.066,-0.145
2.066,-0.023
2.066,-0.020
2.067,0.058
2.067,0.060
2.067,0.067
2.067,0.062
2.067,0.028
2.068,0.027
2.068,0.003
2.068,0.002
2.068,-0.008
2.069,-0.008
2.069,-0.012
2.069,-0.008
2.070,-0.007
2.070,-0.008
2.070,-0.012
2.070,-0.008
2.071,-0.012
2.071,-0.010
2.071,-0.015
2.071,-0.013
2.071,-0.018
2.072,-0.017
2.072,-0.023
2.072,-0.022
2.072,-0.027
2.073,-0.025
2.073,-0.028
2.073,-0.028
2.074,-0.027
2.074,-0.027
2.074,-0.028
2.074,-0.028
2.075,-0.032
2.075,-0.030
2.075,-0.035
2.075,-0.035
2.075,-0.040
2.076,-0.040
2.076,-0.045
2.076,-0.043
2.076,-0.047
2.077,-0.045
2.077,-0.048
2.077,-0.045
2.078,-0.052
2.078,-0.053
2.078,-0.050
2.078,-0.048
2.079,-0.052
2.079,-0.052
2.079,-0.047
2.079,-0.048
2.079,-0.045
2.080,-0.045
2.080,-0.037
2.080,-0.038
2.080,-0.032
2.081,-0.030
2.081,-0.025
2.081,-0.023
2.082,-0.018
2.082,-0.020
2.082,-0.023
2.082,-0.025
2.083,-0.027
2.083,-0.025
2.083,-0.028
2.083,-0.028
2.083,-0.025
2.084,-0.023
2.084,-0.020
2.084,-0.020
2.084,-0.017
2.085,-0.015
2.085,-0.012
2.085,-0.015
2.086,-0.010
2.086,-0.010
2.086,-0.015
2.086,-0.015
2.087,-0.012
2.087,-0.012
2.087,-0.015
2.087,-0.013
2.087,-0.020
2.088,-0.017
2.088,-0.023
2.088,-0.023
2.088,-0.027
2.089,-0.028
2.089,-0.025
2.089,-0.025
2.090,-0.030
2.090,-0.028
2.090,-0.030
2.090,-0.030
2.091,-0.028
2.091,-0.028
2.091,-0.025
2.091,-0.025
2.091,-0.022
2.092,-0.022
2.092,-0.012
2.092,-0.012
2.092,-0.002
2.093,-0.003
2.093,0.003
2.093,0.003
2.094,0.007
2.094,0.007
2.094,0.002
2.094,0.003
2.095,-0.002
2.095,0.000
2.095,-0.003
2.095,0.000
2.095,0.002
2.096,0.002
2.096,0.007
2.096,0.005
2.096,0.008
2.097,0.008
2.097,0.005
2.097,0.007
2.098,0.008
2.098,0.008
2.098,0.005
2.098,0.007
2.099,0.008
2.099,0.008
2.099,0.010
2.099,0.010
2.099,0.007
2.100,0.008
2.100,0.005
2.100,0.007
2.100,0.005
2.101,0.007
2.101,0.008
2.101,0.008
2.102,0.012
2.102,0.013
2.102,0.010
2.102,0.015
2.103,0.018
2.103,0.018
2.103,0.027
2.103,0.027
2.103,0.028
2.104,0.030
2.104,0.033
2.104,0.032
2.104,0.023
2.105,0.022
2.105,0.003
2.105,0.003
2.106,-0.010
2.106,-0.012
2.106,-0.008
2.106,-0.010
2.107,0.002
2.107,0.003
2.107,0.022
2.107,0.023
2.107,0.038
2.108,0.038
2.108,0.042
2.108,0.040
2.108,0.018
2.109,0.018
2.109,-0.002
2.109,-0.002
2.110,-0.012
2.110,-0.013
2.110,-0.005
2.110,-0.005
2.111,0.007
2.111,0.007
2.111,0.008
2.111,0.008
2.111,0.010
2.112,0.012
2.112,0.020
2.112,0.020
2.112,0.035
2.113,0.035
2.113,0.052
2.113,0.053
2.114,0.045
2.114,0.045
2.114,0.003
2.114,0.000
2.115,-0.060
2.115,-0.062
2.115,-0.078
2.115,-0.068
2.115,0.015
2.116,0.018
2.116,0.053
2.116,0.052
2.116,0.043
2.117,0.040
2.117,0.060
2.117,0.062
2.118,0.068
2.118,0.067
2.118,0.052
2.118,0.053
2.119,0.058
2.119,0.058
2.119,0.063
2.119,0.063
2.119,0.070
2.120,0.070
2.120,0.062
2.120,0.060
2.120,0.048
2.121,0.047
2.121,0.050
2.121,0.050
2.122,0.067
2.122,0.068
2.122,0.080
2.122,0.080
2.123,0.095
2.123,0.095
2.123,0.100
2.123,0.100
2.123,0.088
2.124,0.088
2.124,0.078
2.124,0.082
2.124,0.087
2.125,0.087
2.125,0.103
2.125,0.103
2.126,0.130
2.126,0.132
2.126,0.167
2.126,0.168
2.127,0.235
2.127,0.262
2.127,0.093
2.127,0.082
2.127,0.122
2.128,0.125
2.128,0.190
2.128,0.192
2.128,0.273
2.129,0.262
2.129,0.332
2.129,0.330
2.130,0.200
2.130,0.207
2.130,0.400
2.130,0.300
2.131,0.372
2.131,0.372
2.131,0.388
2.131,0.387
2.131,0.350
2.132,0.348
2.132,0.280
2.132,0.277
2.132,0.113
2.133,0.053
2.133,0.358
2.133,0.397
2.134,0.060
2.134,0.302
2.134,-0.110
2.134,-0.125
2.135,-0.260
2.135,-0.262
2.135,-0.178
2.135,-0.175
2.135,-0.103
2.136,-0.102
2.136,-0.065
2.136,-0.063
2.136,-0.033
2.137,-0.032
2.137,-0.007
2.137,-0.005
2.138,0.022
2.138,0.022
2.138,0.047
2.138,0.047
2.139,0.062
2.139,0.062
2.139,0.077
2.139,0.078
2.139,0.087
2.140,0.087
2.140,0.088
2.140,0.085
2.140,0.088
2.141,0.088
2.141,0.100
2.141,0.100
2.142,0.113
2.142,0.113
2.142,0.127
2.142,0.128
2.143,0.138
2.143,0.142
2.143,0.123
2.143,0.122
2.143,0.050
2.144,0.043
2.144,-0.020
2.144,-0.018
2.144,0.055
2.145,0.062
2.145,0.158
2.145,0.162
2.146,0.218
2.146,0.225
2.146,0.188
2.146,0.183
2.147,0.068
2.147,0.065
2.147,0.112
2.147,0.115
2.147,0.195
2.148,0.198
2.148,0.212
2.148,0.208
2.148,0.178
2.149,0.177
2.149,0.153
2.149,0.152
2.150,0.145
2.150,0.147
2.150,0.143
2.150,0.145
2.151,0.137
2.151,0.137
2.151,0.123
2.151,0.123
2.151,0.107
2.152,0.107
2.152,0.097
2.152,0.095
2.152,0.090
2.153,0.092
2.153,0.093
2.153,0.090
2.154,0.093
2.154,0.093
2.154,0.090
2.154,0.090
2.155,0.088
2.155,0.090
2.155,0.087
2.155,0.088
2.155,0.083
2.156,0.083
2.156,0.073
2.156,0.075
2.156,0.070
2.157,0.070
2.157,0.073
2.157,0.070
2.158,0.065
2.158,0.065
2.158,0.052
2.158,0.052
2.159,0.038
2.159,0.040
2.159,0.027
2.159,0.027
2.159,0.017
2.160,0.015
2.160,0.007
2.160,0.007
2.160,-0.003
2.161,-0.003
2.161,-0.017
2.161,-0.017
2.162,-0.028
2.162,-0.027
2.162,-0.035
2.162,-0.033
2.163,-0.042
2.163,-0.042
2.163,-0.050
2.163,-0.050
2.163,-0.055
2.164,-0.053
2.164,-0.055
2.164,-0.053
2.164,-0.058
2.165,-0.058
2.165,-0.062
2.165,-0.063
2.166,-0.058
2.166,-0.058
2.166,-0.057
2.166,-0.058
2.167,-0.053
2.167,-0.053
2.167,-0.050
2.167,-0.052
2.167,-0.048
2.168,-0.048
2.168,-0.045
2.168,-0.047
2.168,-0.043
2.169,-0.045
2.169,-0.042
2.169,-0.043
2.170,-0.045
2.170,-0.043
2.170,-0.045
2.170,-0.045
2.171,-0.047
2.171,-0.045
2.171,-0.038
2.171,-0.040
2.171,-0.028
2.172,-0.028
2.172,-0.017
2.172,-0.017
2.172,-0.008
2.173,-0.008
2.173,-0.005
2.173,-0.007
2.174,-0.010
2.174,-0.012
2.174,-0.013
2.174,-0.013
2.175,-0.018
2.175,-0.017
2.175,-0.022
2.175,-0.022
2.175,-0.023
2.176,-0.025
2.176,-0.028
2.176,-0.027
2.176,-0.030
2.177,-0.030
2.177,-0.032
2.177,-0.033
2.178,-0.027
2.178,-0.030
2.178,-0.022
2.178,-0.020
2.179,-0.013
2.179,-0.015
2.179,-0.017
2.179,-0.015
2.179,-0.010
2.180,-0.010
2.180,-0.008
2.180,-0.008
2.180,-0.005
2.181,-0.007
2.181,-0.015
2.181,-0.015
2.182,-0.010
2.182,-0.008
2.182,0.000
2.182,0.000
2.183,0.010
2.183,0.010
2.183,0.025
2.183,0.025
2.183,0.047
2.184,0.047
2.184,0.067
2.184,0.067
2.184,0.078
2.185,0.078
2.185,0.087
2.185,0.087
2.186,0.088
2.186,0.087
2.186,0.073
2.186,0.073
2.187,0.060
2.187,0.058
2.187,0.053
2.187,0.055
2.188,0.052
2.188,0.055
2.188,0.062
2.188,0.063
2.188,0.060
2.189,0.062
2.189,0.050
2.189,0.048
2.189,0.030
2.190,0.030
2.190,0.008
2.190,0.007
2.191,0.002
2.191,0.003
2.191,0.005
2.191,0.007
2.192,0.015
2.192,0.015
2.192,0.025
2.192,0.025
2.192,0.023
2.193,0.023
2.193,0.028
2.193,0.028
2.193,0.025
2.194,0.025
2.194,0.028
2.194,0.030
2.195,0.040
2.195,0.040
2.195,0.045
2.195,0.043
2.196,0.048
2.196,0.047
2.196,0.050
2.196,0.048
2.196,0.040
2.197,0.040
2.197,0.033
2.197,0.033
2.197,0.028
2.198,0.028
2.198,0.020
2.198,0.020
2.199,0.018
2.199,0.018
2.199,0.022
2.199,0.018
2.200,0.017
2.200,0.017
2.200,0.025
2.200,0.027
2.200,0.030
2.201,0.032
2.201,0.022
2.201,0.020
2.201,0.015
2.202,0.015
2.202,0.008
2.202,0.010
2.203,0.002
2.203,0.000
2.203,-0.040
2.203,-0.042
2.204,-0.080
2.204,-0.085
2.204,-0.047
2.204,-0.043
2.204,-0.007
2.205,-0.007
2.205,-0.022
2.205,-0.025
2.205,-0.015
2.206,-0.015
2.206,0.007
2.206,0.007
2.207,0.013
2.207,0.013
2.207,0.007
2.207,0.005
2.208,-0.007
2.208,-0.007
2.208,-0.010
2.208,-0.012
2.208,-0.017
2.209,-0.017
2.209,-0.025
2.209,-0.027
2.209,-0.040
2.210,-0.040
2.210,-0.048
2.210,-0.048
2.211,-0.052
2.211,-0.052
2.211,-0.055
2.211,-0.052
2.212,-0.055
2.212,-0.055
2.212,-0.050
2.212,-0.052
2.212,-0.050
2.213,-0.050
2.213,-0.052
2.213,-0.052
2.213,-0.047
2.214,-0.050
2.214,-0.048
2.214,-0.052
2.215,-0.048
2.215,-0.050
2.215,-0.055
2.215,-0.053
2.216,-0.057
2.216,-0.057
2.216,-0.053
2.216,-0.055
2.216,-0.048
2.217,-0.050
2.217,-0.042
2.217,-0.042
2.217,-0.050
2.218,-0.048
2.218,-0.060
2.218,-0.060
2.219,-0.067
2.219,-0.065
2.219,-0.063
2.219,-0.063
2.220,-0.060
2.220,-0.060
2.220,-0.065
2.220,-0.062
2.220,-0.067
2.221,-0.067
2.221,-0.075
2.221,-0.073
2.221,-0.077
2.222,-0.077
2.222,-0.082
2.222,-0.080
2.223,-0.065
2.223,-0.065
2.223,-0.047
2.223,-0.045
2.224,-0.005
2.224,-0.003
2.224,0.105
2.224,0.142
2.224,0.000
2.225,-0.148
2.225,0.015
2.225,0.123
2.225,-0.062
2.226,0.193
2.226,-0.063
2.226,-0.097
2.227,-0.252
2.227,-0.265
2.227,-0.183
2.227,-0.180
2.228,-0.123
2.228,-0.122
2.228,-0.092
2.228,-0.092
2.228,-0.072
2.229,-0.072
2.229,-0.058
2.229,-0.057
2.229,-0.047
2.230,-0.047
2.230,-0.038
2.230,-0.038
2.231,-0.030
2.231,-0.030
2.231,-0.015
2.231,-0.013
2.232,0.010
2.232,0.010
2.232,0.047
2.232,0.050
2.232,0.112
2.233,0.102
2.233,0.160
2.233,0.132
2.233,-0.045
2.234,-0.028
2.234,0.032
2.234,-0.003
2.235,0.057
2.235,0.057
2.235,0.075
2.235,0.072
2.236,0.030
2.236,0.028
2.236,-0.042
2.236,-0.045
2.236,-0.097
2.237,-0.098
2.237,-0.138
2.237,-0.140
2.237,-0.157
2.238,-0.158
2.238,-0.167
2.238,-0.167
2.239,-0.163
2.239,-0.163
2.239,-0.158
2.239,-0.158
2.240,-0.143
2.240,-0.143
2.240,-0.137
2.240,-0.145
2.240,-0.188
2.241,-0.192
2.241,-0.255
2.241,-0.253
2.241,-0.187
2.242,-0.182
2.242,-0.073
2.242,-0.070
2.243,-0.002
2.243,0.002
2.243,-0.005
2.243,-0.007
2.244,-0.037
2.244,-0.038
2.244,-0.065
2.244,-0.067
2.244,-0.087
2.245,-0.087
2.245,-0.093
2.245,-0.092
2.245,-0.095
2.246,-0.092
2.246,-0.097
2.246,-0.093
2.247,-0.097
2.247,-0.095
2.247,-0.105
2.247,-0.105
2.248,-0.110
2.248,-0.115
2.248,-0.108
2.248,-0.105
2.248,-0.133
2.249,-0.137
2.249,-0.197
2.249,-0.190
2.249,-0.097
2.250,-0.092
2.250,0.008
2.250,0.012
2.251,0.028
2.251,0.027
2.251,0.012
2.251,0.010
2.252,-0.007
2.252,0.100
2.252,-0.007
2.252,-0.020
2.252,-0.020
2.253,-0.025
2.253,-0.025
2.253,-0.022
2.253,-0.025
2.254,-0.020
2.254,-0.022
2.254,-0.013
2.255,-0.013
2.255,-0.008
2.255,-0.010
2.255,-0.005
2.256,-0.007
2.256,-0.005
2.256,-0.007
2.256,-0.013
2.256,-0.013
2.257,-0.018
2.257,-0.017
2.257,-0.020
2.257,-0.018
2.258,-0.022
2.258,-0.020
2.258,-0.025
2.259,-0.023
2.259,-0.028
2.259,-0.027
2.259,-0.022
2.260,-0.022
2.260,-0.018
2.260,-0.020
2.260,-0.022
2.260,-0.025
2.261,-0.022
2.261,-0.027
2.261,-0.037
2.261,-0.038
2.262,-0.057
2.262,-0.057
2.262,-0.065
2.263,-0.067
2.263,-0.062
2.263,-0.062
2.263,-0.052
2.264,-0.050
2.264,-0.045
2.264,-0.045
2.264,-0.037
2.264,-0.037
2.265,-0.033
2.265,-0.033
2.265,-0.030
2.265,-0.030
2.266,-0.023
2.266,-0.023
2.266,-0.020
2.267,-0.020
2.267,-0.027
2.267,-0.025
2.267,-0.022
2.268,-0.022
2.268,-0.018
2.268,-0.018
2.268,-0.013
2.268,-0.013
2.269,-0.010
2.269,-0.010
2.269,-0.015
2.269,-0.013
2.270,-0.017
2.270,-0.015
2.270,-0.020
2.271,-0.018
2.271,-0.022
2.271,-0.022
2.271,-0.017
2.272,-0.018
2.272,-0.015
2.272,-0.017
2.272,-0.020
2.272,-0.018
2.273,-0.027
2.273,-0.028
2.273,-0.035
2.273,-0.035
2.274,-0.040
2.274,-0.040
2.274,-0.035
2.275,-0.037
2.275,-0.032
2.275,-0.033
2.275,-0.030
2.276,-0.028
2.276,-0.027
2.276,-0.027
2.276,-0.032
2.276,-0.030
2.277,-0.035
2.277,-0.035
2.277,-0.032
2.277,-0.032
2.278,-0.028
2.278,-0.027
2.278,-0.030
2.279,-0.027
2.279,-0.030
2.279,-0.030
2.279,-0.033
2.280,-0.033
2.280,-0.038
2.280,-0.038
2.280,-0.042
2.280,-0.043
2.281,-0.038
2.281,-0.037
2.281,-0.028
2.281,-0.028
2.282,-0.017
2.282,-0.017
2.282,-0.008
2.283,-0.008
2.283,-0.015
2.283,-0.015
2.283,-0.022
2.284,-0.020
2.284,-0.025
2.284,-0.027
2.284,-0.028
2.284,-0.027
2.285,-0.030
2.285,-0.028
2.285,-0.030
2.285,-0.030
2.286,-0.035
2.286,-0.035
2.286,-0.040
2.287,-0.040
2.287,-0.038
2.287,-0.040
2.287,-0.033
2.288,-0.033
2.288,-0.037
2.288,-0.037
2.288,-0.032
2.288,-0.030
2.289,-0.022
2.289,-0.022
2.289,-0.013
2.289,-0.013
2.290,-0.003
2.290,-0.003
2.290,0.005
2.291,0.005
2.291,0.002
2.291,0.000
2.291,-0.045
2.292,-0.047
2.292,-0.090
2.292,-0.095
2.292,-0.055
2.292,-0.050
2.293,0.022
2.293,0.028
2.293,0.022
2.293,0.020
2.294,0.003
2.294,0.005
2.294,0.003
2.295,0.003
2.295,-0.010
2.295,-0.010
2.295,-0.013
2.296,-0.013
2.296,-0.018
2.296,-0.018
2.296,-0.015
2.296,-0.017
2.297,-0.018
2.297,-0.018
2.297,-0.020
2.297,-0.020
2.298,-0.025
2.298,-0.025
2.298,-0.028
2.299,-0.028
2.299,-0.032
2.299,-0.033
2.299,-0.027
2.300,-0.027
2.300,-0.020
2.300,-0.020
2.300,-0.015
2.300,-0.017
2.301,-0.012
2.301,-0.013
2.301,-0.010
2.301,-0.010
2.302,-0.012
2.302,-0.010
2.302,-0.008
2.303,-0.008
2.303,-0.012
2.303,-0.008
2.303,0.000
2.304,-0.002
2.304,0.002
2.304,0.002
2.304,-0.002
2.304,0.000
2.305,-0.020
2.305,-0.020
2.305,-0.042
2.305,-0.043
2.306,-0.057
2.306,-0.057
2.306,-0.062
2.307,-0.062
2.307,-0.057
2.307,-0.057
2.307,-0.048
2.308,-0.048
2.308,-0.047
2.308,-0.047
2.308,-0.048
2.308,-0.048
2.309,-0.045
2.309,-0.047
2.309,-0.040
2.309,-0.038
2.310,-0.035
2.310,-0.035
2.310,-0.032
2.311,-0.033
2.311,-0.032
2.311,-0.033
2.311,-0.027
2.312,-0.027
2.312,-0.015
2.312,-0.015
2.312,-0.010
2.312,-0.008
2.313,-0.012
2.313,-0.008
2.313,-0.017
2.313,-0.017
2.314,-0.028
2.314,-0.030
2.314,-0.038
2.314,-0.038
2.315,-0.048
2.315,-0.048
2.315,-0.053
2.316,-0.052
2.316,-0.048
2.316,-0.052
2.316,-0.047
2.317,-0.045
2.317,-0.033
2.317,-0.033
2.317,-0.022
2.317,-0.022
2.318,-0.015
2.318,-0.018
2.318,-0.025
2.318,-0.025
2.319,-0.028
2.319,-0.028
2.319,-0.022
2.320,-0.020
2.320,0.008
2.320,0.010
2.320,0.043
2.321,0.045
2.321,0.058
2.321,0.058
2.321,0.055
2.321,0.058
2.322,0.070
2.322,0.070
2.322,0.088
2.322,0.007
2.323,0.193
2.323,0.198
2.323,-0.032
2.324,0.235
2.324,-0.135
2.324,-0.142
2.324,-0.200
2.325,-0.215
2.325,-0.152
2.325,-0.148
2.325,-0.095
2.325,-0.093
2.326,-0.077
2.326,-0.077
2.326,-0.065
2.326,-0.065
2.327,-0.057
2.327,-0.057
2.327,-0.048
2.328,-0.050
2.328,-0.042
2.328,-0.042
2.328,-0.037
2.329,-0.037
2.329,-0.022
2.329,-0.022
2.329,-0.015
2.329,-0.013
2.330,-0.015
2.330,-0.013
2.330,-0.005
2.330,-0.007
2.331,-0.002
2.331,-0.003
2.331,-0.008
2.332,-0.008
2.332,-0.010
2.332,-0.008
2.332,-0.012
2.333,-0.008
2.333,-0.003
2.333,-0.003
2.333,0.007
2.333,0.007
2.334,0.013
2.334,0.015
2.334,0.005
2.334,0.005
2.335,-0.053
2.335,-0.057
2.335,-0.145
2.336,-0.145
2.336,-0.095
2.336,-0.090
2.336,0.020
2.337,0.023
2.337,0.092
2.337,0.093
2.337,0.103
2.337,0.095
2.338,0.065
2.338,0.065
2.338,0.043
2.338,0.043
2.339,0.032
2.339,0.032
2.339,0.022
2.340,0.022
2.340,0.012
2.340,0.012
2.340,0.013
2.341,0.013
2.341,0.025
2.341,0.027
2.341,0.070
2.341,0.093
2.342,-0.092
2.342,-0.113
2.342,-0.092
2.342,-0.090
2.343,-0.045
2.343,-0.043
2.343,-0.022
2.344,-0.022
2.344,-0.013
2.344,-0.013
2.344,-0.005
2.345,-0.005
2.345,0.003
2.345,0.003
2.345,0.022
2.345,0.023
2.346,0.040
2.346,0.042
2.346,0.093
2.346,0.097
2.347,0.182
2.347,0.187
2.347,0.257
2.348,0.258
2.348,0.100
2.348,0.095
2.348,0.177
2.349,0.177
2.349,0.140
2.349,0.163
2.349,0.207
2.349,0.208
2.350,0.175
2.350,0.173
2.350,0.085
2.350,0.082
2.351,-0.007
2.351,-0.008
2.351,-0.075
2.352,-0.077
2.352,-0.105
2.352,-0.105
2.352,-0.115
2.353,-0.115
2.353,-0.122
2.353,-0.122
2.353,-0.120
2.353,-0.122
2.354,-0.113
2.354,-0.113
2.354,-0.098
2.354,-0.098
2.355,-0.080
2.355,-0.078
2.355,-0.063
2.356,-0.063
2.356,-0.048
2.356,-0.050
2.356,-0.040
2.357,-0.040
2.357,-0.032
2.357,-0.033
2.357,-0.028
2.357,-0.028
2.358,-0.030
2.358,-0.028
2.358,-0.023
2.358,-0.023
2.359,-0.018
2.359,-0.018
2.359,-0.015
2.360,-0.017
2.360,-0.022
2.360,-0.020
2.360,-0.027
2.361,-0.025
2.361,-0.032
2.361,-0.025
2.361,-0.048
2.361,-0.052
2.362,-0.120
2.362,-0.115
2.362,-0.042
2.362,-0.038
2.363,0.050
2.363,0.050
2.363,0.058
2.364,0.052
2.364,0.020
2.364,0.020
2.364,0.003
2.365,0.003
2.365,-0.003
2.365,-0.003
2.365,0.007
2.365,0.008
2.366,0.025
2.366,0.027
2.366,0.033
2.366,0.033
2.367,0.042
2.367,0.042
2.367,0.045
2.368,0.045
2.368,0.028
2.368,0.027
2.368,-0.027
2.369,-0.028
2.369,-0.060
2.369,-0.058
2.369,0.008
2.369,0.012
2.370,0.057
2.370,0.058
2.370,0.038
2.370,0.037
2.371,0.030
2.371,0.030
2.371,0.027
2.372,0.028
2.372,0.015
2.372,0.015
2.372,0.018
2.373,0.013
2.373,0.015
2.373,0.017
2.373,0.013
2.373,0.017
2.374,0.012
2.374,0.013
2.374,0.008
2.374,0.008
2.375,0.007
2.375,0.008
2.375,0.002
2.376,0.003
2.376,0.000
2.376,0.000
2.376,-0.003
2.377,0.002
2.377,-0.002
2.377,0.000
2.377,0.002
2.377,0.000
2.378,0.005
2.378,0.003
2.378,0.007
2.378,0.007
2.379,0.015
2.379,0.017
2.379,0.023
2.380,0.023
2.380,0.032
2.380,0.033
2.380,0.030
2.381,0.032
2.381,0.023
2.381,0.025
2.381,0.018
2.381,0.018
2.382,0.015
2.382,0.015
2.382,0.012
2.382,0.013
2.383,0.010
2.383,0.010
2.383,0.013
2.384,0.010
2.384,0.013
2.384,0.012
2.384,0.015
2.385,0.010
2.385,0.008
2.385,0.010
2.385,0.007
2.385,0.008
2.386,0.010
2.386,0.008
2.386,0.007
2.386,0.008
2.387,0.010
2.387,0.010
2.387,0.013
2.388,0.013
2.388,0.015
2.388,0.015
2.388,0.020
2.389,0.020
2.389,0.022
2.389,0.022
2.389,0.018
2.389,0.018
2.390,0.020
2.390,0.020
2.390,0.025
2.390,0.023
2.391,0.027
2.391,0.023
2.391,0.018
2.392,0.018
2.392,0.015
2.392,0.015
2.392,0.012
2.393,0.013
2.393,0.010
2.393,0.013
2.393,0.007
2.393,0.008
2.394,0.003
2.394,0.005
2.394,0.012
2.394,0.012
2.395,0.008
2.395,0.008
2.395,0.012
2.396,0.012
2.396,0.008
2.396,0.012
2.396,-0.003
2.397,-0.003
