'Elapsed time','EMG'
'seconds','mv'
0.000,-0.005
0.000,-0.010
0.001,-0.005
0.001,-0.010
0.001,-0.007
0.001,-0.002
0.002,-0.002
0.002,0.003
0.002,0.002
0.002,0.005
0.003,0.007
0.003,0.003
0.003,0.003
0.003,0.007
0.004,0.008
0.004,0.003
0.004,0.003
0.004,0.010
0.004,0.007
0.005,0.000
0.005,0.003
0.005,0.032
0.005,0.032
0.006,0.067
0.006,0.068
0.006,0.082
0.006,0.082
0.007,0.062
0.007,0.060
0.007,0.025
0.007,0.023
0.008,-0.033
0.008,-0.035
0.008,-0.060
0.009,-0.060
0.009,-0.133
0.009,-0.143
0.009,-0.312
0.009,-0.308
0.010,-0.163
0.010,-0.157
0.010,0.020
0.011,0.057
0.011,0.002
0.011,-0.012
0.011,0.023
0.011,0.015
0.012,-0.010
0.012,0.012
0.012,0.068
0.013,0.073
0.013,0.098
0.013,0.125
0.013,0.092
0.013,0.090
0.014,0.018
0.014,0.122
0.014,-0.102
0.015,0.270
0.015,-0.223
0.015,-0.248
0.015,0.017
0.015,-0.008
0.016,-0.052
0.016,-0.037
0.016,0.075
0.017,0.080
0.017,0.018
0.017,0.020
0.017,0.055
0.018,0.055
0.018,0.060
0.018,0.058
0.018,0.047
0.018,0.043
0.019,0.048
0.019,0.043
0.019,0.053
0.019,0.055
0.020,0.093
0.020,0.097
0.020,0.155
0.021,0.157
0.021,0.115
0.021,0.117
0.021,0.310
0.021,0.173
0.022,0.060
0.022,0.170
0.022,0.385
0.022,0.333
0.023,0.152
0.023,0.143
0.023,0.033
0.024,0.033
0.024,0.077
0.024,0.083
0.024,-0.007
0.025,-0.013
0.025,-0.085
0.025,-0.050
0.025,-0.097
0.025,-0.102
0.026,-0.135
0.026,-0.123
0.026,-0.067
0.026,-0.062
0.027,-0.012
0.027,-0.012
0.027,-0.043
0.028,-0.057
0.028,-0.038
0.028,-0.038
0.028,-0.070
0.029,-0.068
0.029,-0.078
0.029,-0.070
0.029,-0.052
0.029,-0.050
0.030,-0.043
0.030,-0.047
0.030,-0.037
0.030,-0.037
0.031,-0.047
0.031,-0.048
0.031,-0.042
0.032,-0.040
0.032,-0.030
0.032,-0.030
0.032,-0.023
0.033,-0.022
0.033,-0.008
0.033,-0.008
0.033,0.002
0.034,0.005
0.034,-0.007
0.034,-0.007
0.034,-0.017
0.035,-0.018
0.035,-0.025
0.035,-0.020
0.035,0.025
0.035,0.027
0.036,0.083
0.036,0.085
0.036,-0.110
0.036,-0.127
0.037,-0.470
0.037,-0.473
0.037,-0.265
0.037,-0.250
0.038,0.018
0.038,0.027
0.038,0.128
0.038,0.100
0.039,0.038
0.039,0.090
0.039,-0.003
0.040,-0.008
0.040,-0.045
0.040,-0.018
0.040,0.062
0.041,0.062
0.041,0.005
0.041,0.003
0.041,-0.030
0.042,-0.025
0.042,0.002
0.042,0.002
0.042,-0.042
0.043,-0.040
0.043,-0.013
0.043,-0.012
0.043,0.005
0.043,0.005
0.044,0.013
0.044,0.012
0.044,0.020
0.044,0.017
0.045,0.025
0.045,0.022
0.045,0.027
0.045,0.028
0.046,0.052
0.046,0.053
0.046,0.085
0.046,0.085
0.047,0.103
0.047,0.097
0.047,-0.042
0.048,0.022
0.048,0.132
0.048,0.142
0.048,0.282
0.049,0.225
0.049,0.100
0.049,0.097
0.049,0.122
0.050,0.125
0.050,0.038
0.050,0.050
0.050,0.032
0.051,0.027
0.051,-0.058
0.051,-0.060
0.051,-0.032
0.051,-0.032
0.052,-0.023
0.052,-0.028
0.052,-0.037
0.052,-0.037
0.053,-0.043
0.053,-0.042
0.053,-0.037
0.053,-0.037
0.054,-0.032
0.054,-0.028
0.054,-0.035
0.054,-0.040
0.055,0.008
0.055,0.012
0.055,0.113
0.056,0.103
0.056,-0.105
0.056,0.043
0.056,0.087
0.057,0.087
0.057,0.048
0.057,0.045
0.057,-0.008
0.058,-0.010
0.058,-0.040
0.058,-0.038
0.058,-0.048
0.059,-0.047
0.059,-0.055
0.059,-0.055
0.059,-0.050
0.059,-0.048
0.060,-0.038
0.060,-0.042
0.060,-0.032
0.060,-0.030
0.061,-0.040
0.061,-0.037
0.061,-0.055
0.061,-0.055
0.062,-0.108
0.062,-0.110
0.062,-0.128
0.062,-0.113
0.063,-0.075
0.063,-0.072
0.063,-0.038
0.064,-0.035
0.064,-0.023
0.064,-0.035
0.064,-0.052
0.065,-0.048
0.065,-0.043
0.065,-0.045
0.065,-0.030
0.066,-0.028
0.066,-0.017
0.066,-0.020
0.066,-0.015
0.067,-0.018
0.067,-0.012
0.067,-0.013
0.067,-0.008
0.068,-0.012
0.068,0.003
0.068,0.005
0.068,0.020
0.069,0.020
0.069,0.035
0.069,0.032
0.069,0.012
0.070,0.008
0.070,-0.092
0.070,-0.095
0.070,-0.125
0.070,-0.112
0.071,-0.042
0.071,-0.040
0.071,0.003
0.071,0.003
0.072,0.032
0.072,0.028
0.072,0.058
0.072,0.053
0.073,0.010
0.073,0.030
0.073,0.060
0.073,0.070
0.074,0.052
0.074,0.045
0.074,-0.045
0.074,0.228
0.075,-0.207
0.075,-0.213
0.075,-0.082
0.075,-0.075
0.076,0.030
0.076,0.028
0.076,0.035
0.076,0.028
0.077,0.013
0.077,0.012
0.077,0.022
0.077,0.020
0.078,0.025
0.078,0.025
0.078,0.017
0.079,0.020
0.079,0.012
0.079,0.010
0.079,0.000
0.080,0.007
0.080,0.032
0.080,0.023
0.080,0.033
0.081,0.035
0.081,0.030
0.081,0.030
0.081,0.027
0.082,0.027
0.082,0.090
0.082,0.047
0.082,-0.072
0.083,-0.040
0.083,0.048
0.083,0.055
0.083,0.108
0.084,0.073
0.084,-0.092
0.084,-0.102
0.084,-0.160
0.085,-0.097
0.085,-0.010
0.085,-0.008
0.085,0.053
0.086,0.053
0.086,-0.005
0.086,-0.007
0.086,-0.050
0.086,-0.067
0.087,-0.017
0.087,0.003
0.087,-0.040
0.087,0.010
0.088,-0.037
0.088,-0.025
0.088,0.025
0.088,0.022
0.089,-0.032
0.089,-0.033
0.089,-0.048
0.089,-0.037
0.090,-0.135
0.090,-0.135
0.090,-0.062
0.090,-0.058
0.091,0.015
0.091,0.008
0.091,-0.050
0.091,-0.028
0.092,0.037
0.092,0.042
0.092,0.232
0.092,0.148
0.093,-0.102
0.093,0.050
0.093,0.093
0.093,0.093
0.094,0.118
0.094,0.123
0.094,0.023
0.095,0.013
0.095,-0.088
0.095,-0.077
0.095,0.000
0.096,0.005
0.096,0.068
0.096,0.070
0.096,0.093
0.097,0.095
0.097,0.087
0.097,0.087
0.097,0.050
0.098,0.047
0.098,0.002
0.098,0.002
0.098,-0.050
0.099,-0.052
0.099,-0.022
0.099,-0.020
0.099,-0.107
0.100,-0.117
0.100,-0.238
0.100,-0.227
0.100,-0.138
0.101,-0.133
0.101,-0.008
0.101,-0.003
0.101,0.077
0.102,0.078
0.102,0.110
0.102,0.098
0.102,0.007
0.102,0.043
0.103,-0.002
0.103,-0.003
0.103,-0.025
0.103,0.002
0.104,0.098
0.104,0.102
0.104,0.128
0.104,0.118
0.105,-0.008
0.105,-0.043
0.105,0.077
0.105,-0.130
0.106,0.167
0.106,0.322
0.106,-0.292
0.106,-0.113
0.107,-0.027
0.107,-0.020
0.107,0.092
0.107,0.112
0.108,0.042
0.108,0.035
0.108,0.003
0.108,0.023
0.109,0.045
0.109,0.048
0.109,0.043
0.110,0.047
0.110,0.040
0.110,0.037
0.110,0.042
0.111,0.035
0.111,0.040
0.111,0.037
0.111,0.025
0.112,0.025
0.112,0.002
0.112,0.002
0.112,-0.008
0.113,0.000
0.113,0.035
0.113,0.037
0.113,0.060
0.114,0.042
0.114,-0.083
0.114,-0.085
0.114,-0.023
0.115,-0.028
0.115,-0.093
0.115,-0.087
0.115,-0.027
0.116,-0.023
0.116,0.045
0.116,0.045
0.116,0.055
0.117,0.025
0.117,0.063
0.117,0.065
0.117,0.127
0.117,0.133
0.118,0.077
0.118,0.070
0.118,0.290
0.118,0.232
0.119,0.043
0.119,0.080
0.119,0.363
0.119,0.355
0.120,0.190
0.120,0.182
0.120,0.053
0.120,0.047
0.121,0.020
0.121,0.028
0.121,0.020
0.121,0.020
0.122,-0.005
0.122,-0.008
0.122,-0.037
0.122,-0.035
0.123,-0.045
0.123,-0.045
0.123,-0.067
0.123,-0.067
0.124,-0.055
0.124,-0.058
0.124,-0.053
0.124,-0.060
0.125,-0.077
0.125,-0.075
0.125,-0.063
0.126,-0.063
0.126,-0.055
0.126,-0.057
0.126,-0.050
0.127,-0.050
0.127,-0.053
0.127,-0.052
0.127,-0.060
0.128,-0.058
0.128,-0.070
0.128,-0.073
0.128,-0.060
0.129,-0.060
0.129,-0.053
0.129,-0.052
0.129,-0.067
0.130,-0.068
0.130,-0.085
0.130,-0.083
0.130,-0.092
0.131,-0.087
0.131,-0.070
0.131,-0.068
0.131,-0.058
0.132,-0.058
0.132,-0.037
0.132,-0.037
0.132,-0.018
0.133,-0.017
0.133,-0.005
0.133,-0.007
0.133,-0.005
0.134,-0.005
0.134,-0.017
0.134,-0.015
0.134,0.007
0.135,0.010
0.135,0.083
0.135,0.107
0.135,0.033
0.136,0.020
0.136,-0.365
0.136,-0.442
0.136,-0.328
0.137,-0.317
0.137,0.010
0.137,0.023
0.137,0.258
0.138,0.270
0.138,0.040
0.138,0.050
0.138,0.143
0.139,0.087
0.139,0.168
0.139,0.167
0.139,0.105
0.140,0.130
0.140,0.172
0.140,0.207
0.140,0.137
0.141,0.147
0.141,0.138
0.141,0.137
0.141,-0.032
0.141,-0.042
0.142,-0.010
0.142,-0.007
0.142,0.025
0.142,0.027
0.143,0.003
0.143,-0.005
0.143,0.028
0.143,0.028
0.144,0.132
0.144,0.122
0.144,-0.093
0.144,0.057
0.145,0.117
0.145,0.120
0.145,0.087
0.145,0.085
0.146,-0.003
0.146,-0.008
0.146,-0.100
0.146,-0.102
0.147,-0.160
0.147,-0.163
0.147,-0.200
0.147,-0.188
0.148,-0.103
0.148,-0.100
0.148,-0.065
0.148,-0.067
0.149,-0.040
0.149,-0.038
0.149,-0.002
0.149,-0.002
0.150,-0.033
0.150,-0.020
0.150,0.013
0.150,0.013
0.151,0.025
0.151,0.017
0.151,-0.087
0.151,0.178
0.152,-0.243
0.152,-0.253
0.152,-0.155
0.152,-0.148
0.153,-0.022
0.153,-0.018
0.153,0.002
0.153,0.000
0.154,-0.017
0.154,-0.020
0.154,-0.005
0.154,-0.008
0.155,0.000
0.155,-0.003
0.155,-0.015
0.155,-0.013
0.156,-0.022
0.156,-0.022
0.156,-0.025
0.157,-0.027
0.157,-0.018
0.157,-0.022
0.157,-0.018
0.158,-0.018
0.158,-0.015
0.158,-0.017
0.158,-0.008
0.159,-0.007
0.159,0.053
0.159,0.055
0.159,-0.105
0.160,-0.088
0.160,-0.040
0.160,-0.037
0.160,-0.003
0.161,-0.003
0.161,0.002
0.161,0.002
0.161,-0.003
0.162,-0.005
0.162,0.000
0.162,-0.002
0.162,-0.007
0.163,-0.007
0.163,-0.010
0.163,-0.007
0.163,-0.015
0.164,-0.010
0.164,-0.015
0.164,-0.008
0.164,-0.013
0.165,-0.008
0.165,-0.005
0.165,-0.008
0.165,-0.003
0.166,-0.003
0.166,-0.007
0.166,-0.002
0.166,-0.007
0.167,0.000
0.167,-0.003
0.167,-0.002
0.167,0.003
0.168,0.003
0.168,0.000
0.168,0.000
0.168,0.005
0.169,0.003
0.169,-0.002
0.169,0.000
0.169,-0.003
0.170,0.000
0.170,-0.003
0.170,0.000
0.170,-0.003
0.171,0.000
0.171,-0.005
0.171,0.000
0.171,-0.005
0.172,0.000
0.172,-0.003
0.172,0.002
0.172,-0.003
0.172,-0.003
0.173,-0.008
0.173,-0.007
0.173,-0.017
0.173,-0.013
0.174,-0.017
0.174,-0.018
0.174,-0.013
0.174,-0.017
0.175,-0.012
0.175,-0.012
0.175,0.005
0.175,0.007
0.176,0.022
0.176,0.025
0.176,0.018
0.176,0.018
0.177,0.062
0.177,0.063
0.177,0.073
0.177,0.062
0.178,0.073
0.178,0.067
0.178,0.057
0.178,0.070
0.179,0.050
0.179,0.043
0.179,-0.122
0.179,-0.130
0.180,-0.257
0.180,-0.237
0.180,-0.310
0.180,-0.313
0.181,-0.175
0.181,-0.168
0.181,-0.060
0.181,-0.055
0.182,0.057
0.182,0.062
0.182,0.135
0.182,0.185
0.183,0.125
0.183,0.147
0.183,0.093
0.183,0.092
0.184,0.133
0.184,0.133
0.184,0.187
0.184,0.170
0.185,0.062
0.185,0.060
0.185,-0.043
0.185,-0.048
0.186,-0.163
0.186,-0.153
0.186,-0.065
0.186,-0.032
0.187,-0.108
0.187,-0.118
0.187,-0.070
0.188,-0.068
0.188,0.018
0.188,0.023
0.188,0.093
0.189,0.082
0.189,-0.025
0.189,-0.012
0.189,0.048
0.190,0.047
0.190,-0.048
0.190,-0.058
0.190,0.007
0.191,0.015
0.191,0.098
0.191,0.100
0.191,0.227
0.192,0.180
0.192,-0.075
0.192,-0.063
0.192,0.322
0.193,0.295
0.193,-0.257
0.193,0.010
0.193,-0.043
0.194,-0.035
0.194,0.045
0.194,0.050
0.194,0.083
0.195,0.058
0.195,0.167
0.195,0.183
0.195,0.155
0.196,0.112
0.196,0.197
0.196,0.300
0.196,0.130
0.197,0.042
0.197,0.265
0.197,0.278
0.197,0.375
0.198,0.287
0.198,0.132
0.198,0.127
0.198,0.042
0.199,0.042
0.199,0.055
0.199,0.055
0.199,0.047
0.200,0.047
0.200,0.007
0.200,0.007
0.200,-0.013
0.201,-0.012
0.201,-0.037
0.201,-0.037
0.201,-0.045
0.202,-0.042
0.202,-0.048
0.202,-0.045
0.202,-0.050
0.203,-0.050
0.203,-0.047
0.203,-0.047
0.203,-0.063
0.203,-0.063
0.204,-0.058
0.204,-0.058
0.204,-0.053
0.204,-0.053
0.205,-0.048
0.205,-0.050
0.205,-0.058
0.205,-0.057
0.206,-0.067
0.206,-0.065
0.206,-0.055
0.206,-0.058
0.207,-0.055
0.207,-0.053
0.207,-0.058
0.207,-0.057
0.208,-0.052
0.208,-0.053
0.208,-0.048
0.208,-0.052
0.209,-0.045
0.209,-0.047
0.209,-0.050
0.209,-0.047
0.210,-0.043
0.210,-0.042
0.210,-0.045
0.210,-0.042
0.211,-0.038
0.211,-0.042
0.211,-0.037
0.211,-0.038
0.212,-0.033
0.212,-0.035
0.212,-0.040
0.212,-0.038
0.213,-0.043
0.213,-0.040
0.213,-0.047
0.213,-0.045
0.214,-0.038
0.214,-0.038
0.214,-0.028
0.214,-0.028
0.215,-0.022
0.215,-0.022
0.215,-0.015
0.215,-0.015
0.216,-0.005
0.216,-0.007
0.216,0.003
0.216,0.002
0.217,0.007
0.217,0.007
0.217,0.013
0.217,0.013
0.218,-0.010
0.218,-0.010
0.218,0.000
0.218,0.000
0.219,0.008
0.219,0.005
0.219,-0.013
0.220,-0.013
0.220,-0.028
0.220,-0.030
0.220,-0.022
0.221,-0.022
0.221,-0.005
0.221,-0.005
0.221,0.000
0.222,0.000
0.222,-0.007
0.222,-0.003
0.222,-0.017
0.223,-0.017
0.223,-0.030
0.223,-0.030
0.223,-0.023
0.224,-0.022
0.224,-0.008
0.224,-0.008
0.224,-0.003
0.225,-0.007
0.225,-0.020
0.225,-0.022
0.225,-0.032
0.226,-0.032
0.226,-0.017
0.226,-0.015
0.226,0.000
0.227,0.000
0.227,0.015
0.227,0.013
0.227,0.023
0.228,0.022
0.228,0.027
0.228,0.025
0.228,0.002
0.229,0.002
0.229,-0.008
0.229,-0.007
0.229,0.010
0.230,0.012
0.230,0.022
0.230,0.023
0.230,0.038
0.231,0.038
0.231,0.017
0.231,0.015
0.231,-0.050
0.232,-0.053
0.232,-0.030
0.232,-0.028
0.232,0.002
0.233,0.003
0.233,0.020
0.233,0.020
0.233,0.017
0.234,0.020
0.234,0.033
0.234,0.033
0.234,0.058
0.234,0.062
0.235,0.098
0.235,0.107
0.235,0.075
0.235,0.060
0.236,-0.040
0.236,0.022
0.236,0.188
0.236,0.202
0.237,0.285
0.237,0.235
0.237,0.110
0.237,0.140
0.238,0.080
0.238,0.075
0.238,0.058
0.238,0.068
0.239,0.018
0.239,0.008
0.239,-0.030
0.239,-0.020
0.240,0.023
0.240,0.027
0.240,0.008
0.240,0.007
0.241,-0.012
0.241,-0.013
0.241,0.030
0.241,0.032
0.242,0.097
0.242,0.095
0.242,-0.178
0.242,-0.197
0.243,-0.442
0.243,-0.433
0.243,-0.222
0.243,-0.212
0.244,-0.078
0.244,-0.072
0.244,0.012
0.244,-0.040
0.245,0.032
0.245,0.043
0.245,-0.063
0.245,-0.075
0.246,-0.023
0.246,-0.020
0.246,0.060
0.246,0.047
0.247,0.120
0.247,0.125
0.247,0.185
0.247,0.187
0.248,0.097
0.248,0.007
0.248,0.087
0.248,0.240
0.249,-0.262
0.249,-0.267
0.249,-0.208
0.249,-0.205
0.250,-0.158
0.250,0.100
0.250,0.143
0.251,-0.060
0.251,-0.068
0.251,-0.035
0.251,-0.030
0.252,0.257
0.252,0.287
0.252,0.137
0.252,0.117
0.253,-0.015
0.253,0.065
0.253,-0.018
0.253,-0.027
0.254,0.027
0.254,0.030
0.254,0.075
0.254,0.013
0.255,0.047
0.255,0.050
0.255,0.113
0.255,0.122
0.256,0.082
0.256,0.075
0.256,0.003
0.256,0.027
0.257,0.008
0.257,0.010
0.257,-0.008
0.257,-0.005
0.258,-0.158
0.258,0.097
0.258,-0.197
0.258,-0.183
0.259,-0.033
0.259,-0.030
0.259,-0.082
0.259,-0.048
0.260,0.028
0.260,0.030
0.260,0.052
0.260,0.052
0.261,0.080
0.261,0.080
0.261,-0.028
0.261,-0.035
0.262,-0.072
0.262,-0.055
0.262,0.005
0.262,0.008
0.263,0.025
0.263,0.023
0.263,0.013
0.263,0.015
0.264,0.008
0.264,0.010
0.264,0.005
0.264,0.007
0.265,0.010
0.265,0.007
0.265,0.022
0.265,0.050
0.266,-0.065
0.266,-0.078
0.266,-0.048
0.266,-0.048
0.267,-0.008
0.267,-0.010
0.267,-0.002
0.267,-0.002
0.268,-0.007
0.268,-0.005
0.268,-0.010
0.268,-0.015
0.269,-0.010
0.269,-0.010
0.269,-0.015
0.269,-0.012
0.270,-0.017
0.270,-0.017
0.270,-0.012
0.270,-0.015
0.271,-0.010
0.271,-0.010
0.271,-0.013
0.271,-0.010
0.272,-0.015
0.272,-0.010
0.272,-0.015
0.272,-0.015
0.273,-0.010
0.273,-0.013
0.273,-0.010
0.273,-0.010
0.274,-0.013
0.274,-0.013
0.274,-0.007
0.274,-0.012
0.275,-0.007
0.275,-0.007
0.275,-0.010
0.275,-0.008
0.276,-0.005
0.276,-0.005
0.276,-0.010
0.276,-0.012
0.277,-0.005
0.277,-0.003
0.277,-0.007
0.277,-0.008
0.278,-0.003
0.278,-0.008
0.278,-0.005
0.278,-0.010
0.279,-0.005
0.279,-0.008
0.279,-0.013
0.279,-0.010
0.280,-0.015
0.280,-0.013
0.280,-0.008
0.280,-0.010
0.281,-0.005
0.281,-0.010
0.281,-0.003
0.281,0.000
0.281,-0.005
0.282,-0.005
0.282,0.003
0.282,0.005
0.282,0.002
0.283,0.003
0.283,0.007
0.283,0.005
0.283,-0.003
0.284,0.000
0.284,-0.007
0.284,-0.007
0.284,-0.002
0.285,0.000
0.285,-0.003
0.285,-0.002
0.285,0.008
0.286,0.005
0.286,0.012
0.286,0.010
0.286,0.017
0.287,0.017
0.287,0.003
0.287,0.002
0.287,-0.012
0.288,-0.007
0.288,0.013
0.288,0.013
0.288,0.030
0.289,0.023
0.289,0.057
0.289,0.058
0.289,0.085
0.290,0.120
0.290,-0.125
0.290,-0.125
0.290,0.397
0.291,0.395
0.291,0.297
0.291,0.293
0.291,0.155
0.292,0.150
0.292,0.058
0.292,0.057
0.292,0.032
0.293,0.032
0.293,0.005
0.293,0.003
0.293,-0.013
0.294,-0.012
0.294,-0.017
0.294,-0.013
0.294,-0.018
0.295,-0.017
0.295,-0.023
0.295,-0.023
0.295,-0.035
0.296,-0.037
0.296,-0.027
0.296,-0.028
0.296,-0.023
0.297,-0.028
0.297,-0.023
0.297,-0.023
0.297,-0.028
0.298,-0.028
0.298,-0.023
0.298,-0.025
0.298,-0.028
0.299,-0.025
0.299,-0.030
0.299,-0.030
0.299,-0.025
0.300,-0.028
0.300,-0.022
0.300,-0.025
0.300,-0.018
0.301,-0.020
0.301,-0.018
0.301,-0.025
0.301,-0.017
0.302,-0.015
0.302,-0.018
0.302,-0.015
0.302,-0.020
0.303,-0.020
0.303,-0.013
0.303,-0.018
0.303,-0.015
0.304,-0.015
0.304,-0.010
0.304,-0.008
0.304,0.008
0.305,0.010
0.305,0.017
0.305,0.017
0.305,0.000
0.306,-0.002
0.306,-0.052
0.306,-0.053
0.306,-0.070
0.307,-0.063
0.307,-0.075
0.307,-0.063
0.307,-0.007
0.308,-0.003
0.308,0.033
0.308,0.020
0.308,-0.082
0.309,-0.072
0.309,-0.102
0.309,-0.097
0.309,-0.048
0.310,-0.045
0.310,0.055
0.310,0.072
0.310,0.045
0.311,0.042
0.311,-0.038
0.311,-0.035
0.311,0.078
0.312,-0.093
0.312,0.143
0.312,0.270
0.312,-0.312
0.313,-0.092
0.313,-0.003
0.313,-0.005
0.314,0.130
0.314,0.182
0.314,0.098
0.314,0.087
0.315,-0.088
0.315,-0.095
0.315,-0.168
0.315,-0.142
0.316,-0.055
0.316,-0.052
0.316,-0.002
0.316,0.000
0.317,-0.012
0.317,-0.015
0.317,0.018
0.317,0.020
0.318,0.083
0.318,0.137
0.318,0.018
0.318,0.007
0.319,-0.053
0.319,-0.087
0.319,-0.043
0.319,-0.040
0.320,0.022
0.320,0.013
0.320,0.032
0.320,0.033
0.321,0.068
0.321,0.068
0.321,0.083
0.321,0.083
0.322,0.075
0.322,0.072
0.322,0.018
0.322,0.015
0.323,-0.047
0.323,-0.047
0.323,0.003
0.323,0.007
0.324,0.040
0.324,0.045
0.324,0.028
0.324,0.027
0.325,-0.003
0.325,-0.003
0.325,0.033
0.325,0.035
0.326,0.083
0.326,0.077
0.326,-0.068
0.326,-0.072
0.327,0.020
0.327,0.030
0.327,-0.070
0.327,-0.072
0.328,-0.008
0.328,-0.005
0.328,0.098
0.328,0.102
0.329,0.142
0.329,0.142
0.329,0.117
0.329,0.158
0.330,0.135
0.330,0.142
0.330,-0.065
0.330,-0.020
0.331,-0.050
0.331,-0.012
0.331,0.263
0.331,0.325
0.332,0.113
0.332,0.093
0.332,-0.055
0.332,-0.038
0.333,0.023
0.333,0.020
0.333,0.115
0.333,0.122
0.334,0.027
0.334,0.025
0.334,0.035
0.334,0.038
0.335,0.063
0.335,0.058
0.335,0.032
0.335,0.028
0.336,-0.008
0.336,0.005
0.336,0.013
0.336,0.007
0.337,0.000
0.337,0.013
0.337,-0.043
0.337,-0.060
0.338,-0.042
0.338,-0.040
0.338,0.007
0.338,0.012
0.339,-0.108
0.339,-0.103
0.339,-0.032
0.339,-0.028
0.340,0.002
0.340,0.002
0.340,-0.007
0.340,-0.002
0.341,-0.007
0.341,-0.005
0.341,-0.018
0.341,-0.020
0.342,-0.027
0.342,-0.023
0.342,-0.028
0.342,-0.023
0.343,-0.030
0.343,-0.027
0.343,-0.023
0.343,-0.027
0.344,-0.020
0.344,-0.023
0.344,-0.018
0.344,-0.018
0.344,-0.022
0.345,-0.018
0.345,-0.025
0.345,-0.022
0.345,-0.030
0.346,-0.028
0.346,-0.022
0.346,-0.022
0.346,-0.005
0.347,-0.003
0.347,0.007
0.347,0.007
0.347,-0.005
0.348,-0.005
0.348,-0.045
0.348,-0.050
0.348,-0.147
0.349,-0.157
0.349,-0.128
0.349,-0.125
0.349,-0.055
0.350,-0.053
0.350,-0.010
0.350,-0.008
0.350,0.023
0.351,0.043
0.351,0.010
0.351,-0.005
0.351,0.040
0.352,0.043
0.352,0.073
0.352,0.075
0.352,-0.037
0.353,-0.085
0.353,0.010
0.353,0.152
0.353,-0.168
0.354,-0.162
0.354,-0.017
0.354,-0.012
0.354,0.053
0.355,0.058
0.355,0.043
0.355,0.043
0.355,0.030
0.356,0.030
0.356,0.038
0.356,0.033
0.356,0.020
0.357,0.022
0.357,0.013
0.357,0.013
0.357,0.008
0.358,0.010
0.358,0.003
0.358,0.007
0.358,0.000
0.359,0.000
0.359,0.007
0.359,0.003
0.359,0.000
0.360,0.000
0.360,0.003
0.360,0.002
0.360,0.018
0.361,0.047
0.361,-0.040
0.361,-0.048
0.361,-0.075
0.362,-0.050
0.362,-0.010
0.362,-0.008
0.362,0.005
0.363,0.007
0.363,-0.002
0.363,0.000
0.363,-0.005
0.364,0.000
0.364,-0.007
0.364,-0.005
0.364,-0.012
0.365,-0.007
0.365,-0.010
0.365,-0.010
0.365,-0.005
0.366,-0.008
0.366,-0.003
0.366,-0.005
0.366,-0.002
0.367,-0.002
0.367,-0.003
0.367,-0.003
0.367,0.000
0.368,-0.003
0.368,0.000
0.368,0.000
0.368,-0.003
0.369,0.000
0.369,-0.005
0.369,-0.003
0.369,-0.007
0.370,-0.008
0.370,-0.003
0.370,-0.003
0.370,-0.008
0.371,-0.003
0.371,-0.008
0.371,-0.007
0.371,-0.002
0.372,-0.002
0.372,0.010
0.372,0.010
0.372,0.025
0.373,0.025
0.373,0.037
0.373,0.037
0.373,0.048
0.374,0.043
0.374,0.048
0.374,0.047
0.374,0.077
0.375,0.078
0.375,0.133
0.375,0.138
0.376,0.025
0.376,0.008
0.376,-0.420
0.376,-0.472
0.377,-0.353
0.377,-0.342
0.377,-0.042
0.377,-0.030
0.378,0.148
0.378,0.152
0.378,0.073
0.378,0.070
0.379,0.103
0.379,0.103
0.379,-0.052
0.379,-0.043
0.380,0.043
0.380,0.045
0.380,0.092
0.380,0.102
0.381,0.042
0.381,0.035
0.381,-0.047
0.381,-0.043
0.382,-0.027
0.382,-0.048
0.382,-0.022
0.382,-0.020
0.383,0.003
0.383,0.005
0.383,0.020
0.383,0.022
0.384,0.017
0.384,0.015
0.384,-0.010
0.384,-0.010
0.385,-0.020
0.385,-0.015
0.385,0.000
0.385,0.000
0.386,0.010
0.386,0.008
0.386,0.015
0.386,0.017
0.387,0.010
0.387,0.012
0.387,0.007
0.387,0.005
0.388,0.010
0.388,0.007
0.388,0.015
0.388,0.015
0.389,0.023
0.389,0.025
0.389,0.015
0.389,0.013
0.390,-0.007
0.390,-0.005
0.390,0.005
0.390,0.007
0.391,0.020
0.391,0.018
0.391,0.038
0.391,0.038
0.392,0.053
0.392,0.045
0.392,-0.035
0.392,-0.038
0.393,-0.053
0.393,-0.035
0.393,-0.002
0.393,-0.002
0.394,0.017
0.394,0.017
0.394,0.002
0.394,-0.002
0.395,0.003
0.395,0.005
0.395,-0.002
0.395,0.000
0.396,-0.005
0.396,-0.003
0.396,-0.008
0.396,-0.007
0.397,-0.002
0.397,0.000
0.397,-0.005
0.397,-0.002
0.398,-0.008
0.398,-0.012
0.398,-0.007
0.398,-0.007
0.399,-0.002
0.399,-0.003
0.399,0.002
0.399,-0.003
0.400,0.002
0.400,-0.002
0.400,0.002
0.400,-0.002
0.401,0.005
0.401,0.000
0.401,0.007
0.401,0.005
0.402,0.013
0.402,0.012
0.402,0.017
0.402,0.013
0.403,0.018
0.403,0.017
0.403,0.013
0.403,0.013
0.404,0.010
0.404,0.013
0.404,0.008
0.404,0.005
0.405,0.010
0.405,0.005
0.405,0.012
0.405,0.005
0.406,0.010
0.406,0.005
0.406,0.010
0.406,0.003
0.406,0.008
0.407,0.002
0.407,0.007
0.407,0.007
0.407,0.003
0.408,0.000
0.408,0.007
0.408,0.005
0.408,0.000
0.409,0.000
0.409,0.003
0.409,0.003
0.409,-0.003
0.410,-0.002
0.410,-0.007
0.410,-0.003
0.410,-0.007
0.411,-0.005
0.411,-0.002
0.411,-0.002
0.411,0.003
0.412,0.002
0.412,0.010
0.412,0.012
0.412,0.008
0.413,0.013
0.413,0.008
0.413,0.010
0.413,0.000
0.414,0.000
0.414,-0.007
0.414,-0.003
0.414,-0.008
0.415,-0.007
0.415,0.000
0.415,-0.005
0.415,0.002
0.416,-0.003
0.416,0.002
0.416,0.000
0.416,-0.003
0.417,0.000
0.417,-0.003
0.417,-0.002
0.417,0.003
0.418,0.000
0.418,0.007
0.418,0.005
0.418,0.008
0.419,0.008
0.419,-0.003
0.419,0.002
0.419,0.038
0.420,0.040
0.420,0.142
0.420,-0.077
0.420,0.397
0.421,0.415
0.421,0.325
0.421,0.318
0.421,0.167
0.422,0.162
0.422,0.055
0.422,0.053
0.422,0.008
0.423,0.007
0.423,-0.008
0.423,-0.010
0.423,-0.025
0.424,-0.023
0.424,-0.030
0.424,-0.025
0.424,-0.028
0.425,-0.025
0.425,-0.032
0.425,-0.030
0.425,-0.023
0.426,-0.027
0.426,-0.023
0.426,-0.025
0.426,-0.020
0.427,-0.022
0.427,-0.025
0.427,-0.023
0.427,-0.027
0.428,-0.028
0.428,-0.033
0.428,-0.032
0.428,-0.027
0.429,-0.028
0.429,-0.025
0.429,-0.027
0.429,-0.030
0.430,-0.028
0.430,-0.012
0.430,-0.008
0.430,0.022
0.431,0.025
0.431,0.055
0.431,0.055
0.431,0.065
0.432,0.062
0.432,0.047
0.432,0.047
0.432,0.057
0.433,0.048
0.433,-0.133
0.433,-0.137
0.433,-0.053
0.434,-0.052
0.434,0.013
0.434,0.017
0.434,0.095
0.435,0.042
0.435,0.115
0.435,0.118
0.435,0.212
0.436,0.152
0.436,0.145
0.436,0.150
0.436,0.077
0.437,0.067
0.437,0.023
0.437,0.028
0.438,0.017
0.438,0.012
0.438,0.043
0.438,0.038
0.439,0.050
0.439,0.052
0.439,0.028
0.439,0.025
0.440,-0.128
0.440,-0.137
0.440,-0.248
0.440,-0.223
0.441,-0.175
0.441,-0.250
0.441,-0.153
0.441,-0.145
0.442,0.087
0.442,0.117
0.442,0.035
0.442,0.030
0.443,-0.055
0.443,-0.047
0.443,0.053
0.443,0.005
0.444,-0.225
0.444,0.083
0.444,-0.353
0.444,-0.217
0.445,-0.107
0.445,-0.090
0.445,0.090
0.445,0.088
0.446,0.018
0.446,0.245
0.446,-0.172
0.446,-0.212
0.447,0.045
0.447,0.050
0.447,0.090
0.447,0.092
0.448,0.065
0.448,0.062
0.448,0.030
0.448,0.030
0.449,0.018
0.449,0.022
0.449,0.017
0.449,0.015
0.450,0.002
0.450,0.000
0.450,-0.013
0.450,-0.013
0.451,0.013
0.451,0.015
0.451,0.073
0.451,0.088
0.452,0.018
0.452,0.013
0.452,-0.158
0.452,-0.135
0.453,-0.018
0.453,-0.040
0.453,-0.127
0.453,-0.117
0.454,-0.015
0.454,-0.010
0.454,0.050
0.454,0.050
0.455,0.002
0.455,-0.003
0.455,-0.028
0.455,-0.010
0.456,-0.003
0.456,-0.005
0.456,-0.010
0.456,-0.012
0.457,-0.002
0.457,-0.002
0.457,-0.007
0.457,-0.003
0.458,-0.008
0.458,-0.007
0.458,-0.015
0.458,-0.012
0.459,-0.017
0.459,-0.017
0.459,-0.020
0.459,-0.018
0.460,-0.022
0.460,-0.023
0.460,-0.020
0.460,-0.020
0.461,-0.023
0.461,-0.023
0.461,-0.020
0.461,-0.020
0.462,-0.025
0.462,-0.025
0.462,-0.022
0.462,-0.023
0.463,-0.018
0.463,-0.020
0.463,-0.013
0.463,-0.017
0.464,-0.005
0.464,-0.003
0.464,0.012
0.464,0.012
0.465,0.020
0.465,0.020
0.465,0.027
0.465,0.025
0.466,0.028
0.466,0.028
0.466,0.020
0.466,0.022
0.467,0.048
0.467,0.050
0.467,0.115
0.467,0.122
0.468,0.013
0.468,0.000
0.468,-0.388
0.468,-0.413
0.469,-0.285
0.469,-0.273
0.469,-0.012
0.469,-0.003
0.469,0.132
0.470,0.128
0.470,0.048
0.470,0.047
0.470,0.077
0.471,0.070
0.471,-0.075
0.471,-0.070
0.471,0.003
0.472,0.005
0.472,0.022
0.472,0.023
0.472,0.015
0.473,0.017
0.473,0.013
0.473,0.018
0.473,-0.030
0.474,-0.050
0.474,-0.018
0.474,-0.020
0.474,0.000
0.475,0.000
0.475,0.008
0.475,0.010
0.475,0.002
0.476,0.002
0.476,-0.033
0.476,-0.035
0.476,-0.075
0.477,-0.078
0.477,-0.068
0.477,-0.067
0.477,-0.025
0.478,-0.025
0.478,0.000
0.478,0.002
0.478,0.013
0.479,0.012
0.479,0.020
0.479,0.020
0.479,0.023
0.480,0.023
0.480,0.028
0.480,0.027
0.480,0.050
0.481,0.050
0.481,-0.040
0.481,-0.045
0.481,-0.093
0.482,-0.080
0.482,-0.012
0.482,-0.010
0.482,0.012
0.483,0.012
0.483,-0.008
0.483,-0.007
0.483,-0.012
0.484,-0.010
0.484,0.035
0.484,0.038
0.484,0.082
0.485,0.063
0.485,-0.102
0.485,-0.108
0.485,-0.210
0.486,-0.190
0.486,-0.073
0.486,-0.070
0.486,0.002
0.487,0.005
0.487,0.027
0.487,0.023
0.487,0.000
0.488,-0.035
0.488,0.012
0.488,0.018
0.488,0.105
0.489,0.018
0.489,-0.037
0.489,-0.048
0.489,-0.028
0.490,-0.022
0.490,0.020
0.490,0.018
0.490,-0.005
0.491,0.007
0.491,0.020
0.491,0.022
0.491,0.032
0.492,0.032
0.492,0.025
0.492,0.028
0.492,0.015
0.493,0.013
0.493,0.000
0.493,0.013
0.493,-0.003
0.494,-0.005
0.494,-0.017
0.494,-0.008
0.494,-0.002
0.495,-0.003
0.495,0.002
0.495,-0.005
0.495,0.002
0.496,0.000
0.496,-0.003
0.496,-0.002
0.496,-0.005
0.497,-0.005
0.497,-0.002
0.497,-0.003
0.497,-0.007
0.498,-0.007
0.498,-0.002
0.498,-0.002
0.498,-0.008
0.499,-0.002
0.499,-0.010
0.499,-0.010
0.499,-0.002
0.500,-0.003
0.500,-0.008
0.500,0.100
0.500,-0.012
0.501,-0.003
0.501,-0.007
0.501,-0.013
0.501,-0.007
0.502,-0.010
0.502,-0.010
0.502,-0.005
0.502,-0.010
0.503,-0.007
0.503,-0.008
0.503,-0.012
0.503,-0.013
0.504,-0.008
0.504,-0.008
0.504,-0.013
0.504,-0.012
0.505,-0.007
0.505,-0.008
0.505,-0.013
0.505,-0.015
0.506,-0.008
0.506,-0.015
0.506,-0.007
0.506,-0.012
0.507,-0.007
0.507,-0.008
0.507,-0.012
0.507,-0.008
0.508,-0.012
0.508,-0.008
0.508,-0.012
0.508,-0.008
0.509,-0.013
0.509,-0.013
0.509,-0.007
0.509,-0.005
0.510,-0.010
0.510,-0.010
0.510,-0.005
0.510,-0.007
0.511,-0.012
0.511,-0.010
0.511,-0.005
0.511,-0.005
0.512,-0.008
0.512,-0.010
0.512,-0.005
0.512,-0.007
0.513,-0.012
0.513,-0.010
0.513,-0.017
0.513,-0.013
0.514,-0.018
0.514,-0.018
0.514,-0.023
0.514,-0.022
0.515,-0.025
0.515,-0.023
0.515,-0.027
0.515,-0.023
0.516,-0.030
0.516,-0.027
0.516,-0.018
0.516,-0.015
0.517,-0.020
0.517,-0.018
0.517,-0.012
0.517,-0.017
0.518,-0.012
0.518,-0.010
0.518,0.017
0.518,0.020
0.519,0.073
0.519,0.075
0.519,0.105
0.519,0.103
0.520,0.082
0.520,0.078
0.520,-0.010
0.520,-0.012
0.521,-0.148
0.521,-0.152
0.521,-0.185
0.521,-0.158
0.522,-0.062
0.522,-0.050
0.522,-0.155
0.522,-0.197
0.523,-0.112
0.523,-0.103
0.523,0.070
0.523,0.108
0.524,0.002
0.524,0.038
0.524,0.170
0.524,0.180
0.525,0.367
0.525,0.340
0.525,0.267
0.525,0.377
0.526,0.072
0.526,0.072
0.526,0.237
0.526,0.113
0.527,0.345
0.527,0.385
0.527,0.572
0.527,0.408
0.528,0.188
0.528,0.183
0.528,0.123
0.528,0.123
0.529,0.078
0.529,0.072
0.529,-0.075
0.529,-0.070
0.530,-0.025
0.530,-0.020
0.530,-0.025
0.530,-0.025
0.531,-0.038
0.531,-0.037
0.531,-0.045
0.531,-0.045
0.532,-0.048
0.532,-0.050
0.532,-0.043
0.532,-0.045
0.533,-0.028
0.533,-0.007
0.533,-0.120
0.533,-0.130
0.534,-0.095
0.534,-0.093
0.534,-0.057
0.534,-0.057
0.535,-0.048
0.535,-0.047
0.535,-0.055
0.535,-0.060
0.536,-0.047
0.536,-0.047
0.536,-0.015
0.536,-0.015
0.537,0.003
0.537,0.012
0.537,0.003
0.537,0.005
0.538,-0.038
0.538,-0.038
0.538,-0.133
0.538,-0.138
0.539,-0.178
0.539,-0.173
0.539,-0.133
0.539,-0.132
0.540,-0.070
0.540,-0.068
0.540,-0.042
0.540,-0.048
0.541,-0.083
0.541,-0.077
0.541,-0.037
0.541,-0.035
0.542,-0.108
0.542,-0.140
0.542,-0.100
0.542,-0.097
0.543,-0.023
0.543,-0.018
0.543,0.030
0.543,-0.010
0.544,-0.030
0.544,0.153
0.544,-0.045
0.544,-0.292
0.545,-0.090
0.545,-0.083
0.545,0.037
0.545,0.042
0.546,0.137
0.546,0.138
0.546,0.062
0.546,0.055
0.547,-0.088
0.547,-0.040
0.547,-0.168
0.547,-0.222
0.548,0.158
0.548,0.195
0.548,-0.365
0.548,-0.080
0.549,-0.027
0.549,-0.022
0.549,0.040
0.549,0.048
0.550,-0.047
0.550,-0.052
0.550,-0.005
0.550,-0.002
0.551,0.040
0.551,0.042
0.551,0.037
0.551,0.038
0.552,0.027
0.552,0.025
0.552,0.015
0.552,0.013
0.553,-0.018
0.553,-0.027
0.553,-0.018
0.553,-0.018
0.554,-0.007
0.554,-0.010
0.554,-0.003
0.554,-0.007
0.555,-0.002
0.555,-0.007
0.555,-0.002
0.555,-0.003
0.556,0.005
0.556,0.000
0.556,0.005
0.556,0.003
0.557,0.013
0.557,0.013
0.557,0.018
0.557,0.018
0.558,0.025
0.558,0.023
0.558,0.027
0.558,0.025
0.559,0.022
0.559,0.023
0.559,0.015
0.559,0.018
0.560,0.030
0.560,0.032
0.560,0.050
0.560,0.048
0.561,0.065
0.561,0.063
0.561,0.073
0.561,0.072
0.562,0.050
0.562,0.048
0.562,0.025
0.562,0.030
0.563,0.083
0.563,0.087
0.563,0.120
0.564,0.080
0.564,-0.245
0.564,-0.257
0.564,-0.432
0.565,-0.427
0.565,-0.130
0.565,-0.113
0.565,0.068
0.566,0.050
0.566,-0.015
0.566,-0.015
0.566,0.103
0.567,0.120
0.567,-0.008
0.567,-0.015
0.567,0.000
0.568,-0.003
0.568,0.047
0.568,0.047
0.568,0.055
0.569,0.050
0.569,0.045
0.569,0.048
0.569,0.002
0.570,0.000
0.570,-0.025
0.570,-0.007
0.570,0.007
0.571,0.008
0.571,0.013
0.571,0.012
0.571,0.007
0.572,0.005
0.572,0.010
0.572,0.005
0.572,0.008
0.573,0.008
0.573,0.015
0.573,0.013
0.573,0.020
0.574,0.018
0.574,0.023
0.574,0.022
0.574,0.007
0.575,0.005
0.575,-0.030
0.575,-0.032
0.575,-0.067
0.576,-0.070
0.576,-0.045
0.576,-0.043
0.576,-0.010
0.577,-0.010
0.577,0.008
0.577,0.007
0.577,0.013
0.578,0.015
0.578,0.008
0.578,0.010
0.578,0.015
0.579,0.013
0.579,0.022
0.579,0.023
0.579,0.042
0.580,0.042
0.580,-0.062
0.580,-0.087
0.580,-0.063
0.581,-0.062
0.581,-0.005
0.581,-0.003
0.581,0.015
0.582,0.017
0.582,0.010
0.582,0.015
0.582,0.012
0.583,0.013
0.583,0.017
0.583,0.018
0.583,0.012
0.584,0.010
0.584,-0.015
0.584,-0.013
0.584,-0.003
0.585,-0.003
0.585,0.013
0.585,0.012
0.585,0.028
0.586,0.025
0.586,0.043
0.586,0.042
0.586,-0.035
0.587,-0.038
0.587,-0.063
0.587,-0.053
0.587,-0.012
0.588,-0.008
0.588,0.008
0.588,0.010
0.588,0.003
0.589,0.005
0.589,0.000
0.589,0.003
0.589,0.007
0.590,0.007
0.590,-0.003
0.590,0.000
0.590,-0.003
0.591,-0.002
0.591,0.007
0.591,0.007
0.591,0.038
0.592,0.038
0.592,0.062
0.592,0.062
0.592,0.070
0.593,0.070
0.593,0.040
0.593,0.040
0.593,-0.022
0.594,-0.023
0.594,-0.085
0.594,-0.095
0.594,-0.083
0.595,-0.067
0.595,-0.083
0.595,-0.088
0.595,-0.222
0.596,-0.215
0.596,-0.085
0.596,-0.077
0.596,0.068
0.597,0.073
0.597,0.113
0.597,0.103
0.597,-0.107
0.598,-0.135
0.598,-0.027
0.598,-0.022
0.598,0.248
0.599,0.260
0.599,0.355
0.599,0.348
0.599,0.235
0.600,0.272
0.600,0.190
0.600,0.187
0.600,0.157
0.601,0.153
0.601,0.108
0.601,0.095
0.601,-0.062
0.602,-0.068
0.602,0.075
0.602,0.083
0.602,-0.215
0.603,-0.145
0.603,0.032
0.603,0.037
0.603,0.052
0.604,0.048
0.604,0.013
0.604,0.012
0.604,0.002
0.605,0.003
0.605,-0.003
0.605,-0.002
0.605,-0.017
0.606,-0.015
0.606,-0.027
0.606,-0.022
0.606,-0.030
0.607,-0.032
0.607,-0.027
0.607,-0.028
0.607,-0.018
0.608,-0.018
0.608,-0.005
0.608,-0.003
0.608,0.002
0.609,0.003
0.609,-0.003
0.609,0.000
0.609,0.028
0.610,0.027
0.610,-0.098
0.610,-0.092
0.610,-0.035
0.611,-0.030
0.611,0.045
0.611,0.078
0.611,0.043
0.612,0.037
0.612,-0.123
0.612,-0.132
0.612,-0.217
0.613,-0.187
0.613,-0.095
0.613,-0.093
0.613,-0.032
0.614,-0.027
0.614,-0.043
0.614,-0.045
0.614,0.005
0.615,0.003
0.615,0.080
0.615,0.125
0.615,-0.018
0.616,-0.027
0.616,-0.095
0.616,-0.103
0.616,-0.033
0.617,-0.028
0.617,0.003
0.617,-0.002
0.617,-0.025
0.618,-0.012
0.618,0.000
0.618,0.003
0.618,0.000
0.619,0.000
0.619,-0.007
0.619,-0.007
0.619,-0.012
0.620,-0.012
0.620,-0.007
0.620,-0.013
0.620,-0.008
0.621,-0.010
0.621,-0.005
0.621,-0.008
0.621,-0.003
0.622,-0.002
0.622,-0.010
0.622,-0.008
0.622,-0.010
0.623,-0.008
0.623,-0.013
0.623,-0.013
0.623,-0.008
0.624,-0.008
0.624,-0.012
0.624,-0.008
0.624,-0.013
0.625,-0.010
0.625,-0.005
0.625,-0.010
0.625,-0.005
0.625,-0.010
0.626,-0.007
0.626,-0.008
0.626,-0.013
0.626,-0.013
0.627,-0.008
0.627,-0.015
0.627,-0.010
0.627,-0.013
0.628,-0.007
0.628,-0.010
0.628,-0.003
0.628,-0.005
0.629,0.000
0.629,-0.002
0.629,0.005
0.629,0.010
0.630,0.003
0.630,0.008
0.630,0.003
0.630,0.003
0.631,-0.007
0.631,-0.007
0.631,-0.013
0.631,-0.007
0.632,-0.013
0.632,-0.012
0.632,-0.007
0.632,-0.007
0.633,-0.010
0.633,-0.007
0.633,-0.012
0.633,-0.012
0.634,-0.005
0.634,-0.008
0.634,-0.003
0.634,-0.002
0.635,0.003
0.635,0.002
0.635,0.010
0.635,0.013
0.636,0.007
0.636,-0.002
0.636,0.025
0.636,0.030
0.637,0.067
0.637,0.143
0.637,-0.072
0.637,-0.050
0.638,0.397
0.638,0.380
0.638,0.260
0.638,0.253
0.639,0.110
0.639,0.107
0.639,0.053
0.639,0.052
0.640,0.047
0.640,0.050
0.640,0.043
0.640,0.045
0.641,0.008
0.641,0.007
0.641,-0.063
0.641,-0.067
0.642,-0.148
0.642,-0.152
0.642,-0.127
0.642,-0.123
0.643,-0.073
0.643,-0.070
0.643,-0.033
0.643,-0.033
0.644,-0.077
0.644,-0.082
0.644,-0.040
0.644,-0.038
0.645,-0.008
0.645,-0.028
0.645,-0.075
0.645,-0.062
0.646,-0.007
0.646,-0.005
0.646,0.025
0.646,0.018
0.647,-0.067
0.647,-0.075
0.647,0.105
0.647,0.225
0.648,-0.242
0.648,-0.082
0.648,0.025
0.648,0.027
0.649,0.045
0.649,0.042
0.649,0.015
0.649,0.015
0.650,-0.005
0.650,-0.005
0.650,-0.017
0.650,-0.012
0.651,-0.017
0.651,-0.017
0.651,-0.012
0.651,-0.013
0.652,-0.018
0.652,-0.020
0.652,-0.013
0.652,-0.015
0.653,-0.022
0.653,-0.022
0.653,-0.017
0.653,-0.015
0.654,-0.022
0.654,-0.015
0.654,-0.020
0.654,-0.015
0.655,-0.018
0.655,-0.020
0.655,-0.015
0.655,-0.013
0.656,-0.020
0.656,-0.018
0.656,-0.012
0.656,-0.010
0.657,-0.002
0.657,-0.007
0.657,0.000
0.657,-0.002
0.658,-0.007
0.658,-0.005
0.658,-0.028
0.658,-0.028
0.659,-0.033
0.659,-0.030
0.659,-0.018
0.659,-0.020
0.660,-0.005
0.660,-0.007
0.660,-0.017
0.660,-0.018
0.661,-0.035
0.661,-0.038
0.661,-0.030
0.661,-0.028
0.662,-0.012
0.662,-0.012
0.662,0.000
0.662,0.000
0.663,0.013
0.663,0.013
0.663,0.027
0.663,0.027
0.664,0.037
0.664,0.038
0.664,0.048
0.664,0.047
0.665,0.055
0.665,0.053
0.665,0.042
0.665,0.045
0.666,0.065
0.666,0.067
0.666,0.127
0.666,0.135
0.667,0.028
0.667,0.013
0.667,-0.357
0.667,-0.390
0.668,-0.272
0.668,-0.263
0.668,-0.008
0.668,0.000
0.669,0.145
0.669,0.145
0.669,0.067
0.669,0.063
0.670,0.098
0.670,0.093
0.670,-0.043
0.670,-0.037
0.671,0.040
0.671,0.043
0.671,0.053
0.671,0.047
0.672,-0.025
0.672,-0.040
0.672,-0.020
0.672,-0.008
0.673,-0.032
0.673,-0.035
0.673,0.013
0.673,0.013
0.674,0.028
0.674,0.022
0.674,0.000
0.674,-0.002
0.675,0.008
0.675,0.005
0.675,0.020
0.675,0.022
0.676,0.030
0.676,0.025
0.676,0.032
0.676,0.032
0.677,0.038
0.677,0.037
0.677,0.028
0.677,0.027
0.678,-0.012
0.678,-0.013
0.678,-0.048
0.678,-0.050
0.679,-0.060
0.679,-0.053
0.679,-0.008
0.679,-0.007
0.680,0.088
0.680,0.108
0.680,0.040
0.680,0.035
0.681,0.083
0.681,0.060
0.681,0.082
0.681,0.077
0.682,0.028
0.682,0.023
0.682,-0.092
0.682,-0.097
0.683,-0.203
0.683,-0.208
0.683,-0.073
0.683,0.003
0.684,-0.208
0.684,0.135
0.684,-0.392
0.684,-0.388
0.685,-0.125
0.685,-0.140
0.685,0.160
0.685,0.175
0.686,0.253
0.686,0.175
0.686,-0.032
0.686,-0.005
0.687,0.298
0.687,0.062
0.687,-0.095
0.688,-0.098
0.688,-0.003
0.688,0.003
0.688,0.102
0.689,0.105
0.689,0.122
0.689,0.120
0.689,0.050
0.690,0.050
0.690,0.090
0.690,0.112
0.690,0.087
0.691,0.077
0.691,-0.020
0.691,-0.002
0.691,0.065
0.692,0.068
0.692,0.078
0.692,0.075
0.692,0.057
0.693,0.055
0.693,0.038
0.693,0.042
0.693,0.038
0.694,0.038
0.694,0.043
0.694,0.075
0.694,0.033
0.695,0.022
0.695,-0.050
0.695,-0.028
0.695,0.010
0.696,0.012
0.696,0.023
0.696,0.025
0.696,0.022
0.697,0.023
0.697,0.017
0.697,0.018
0.697,0.013
0.698,0.013
0.698,0.018
0.698,0.017
0.698,0.010
0.699,0.015
0.699,0.010
0.699,0.008
0.699,0.013
0.700,0.013
0.700,0.005
0.700,0.007
0.700,0.002
0.701,0.002
0.701,-0.003
0.701,0.000
0.701,-0.005
0.702,-0.007
0.702,-0.002
0.702,-0.002
0.702,0.002
0.703,0.000
0.703,0.008
0.703,0.008
0.703,0.017
0.704,0.015
0.704,0.035
0.704,0.035
0.704,0.060
0.705,0.062
0.705,0.102
0.705,0.128
0.705,-0.032
0.706,-0.062
0.706,0.005
0.706,-0.003
0.706,0.218
0.707,0.230
0.707,0.328
0.707,0.285
0.707,0.168
0.708,0.215
0.708,0.138
0.708,0.132
0.708,0.097
0.709,0.095
0.709,0.022
0.709,0.008
0.709,-0.040
0.710,-0.040
0.710,-0.007
0.710,-0.007
0.710,-0.013
0.711,-0.015
0.711,-0.028
0.711,-0.030
0.711,-0.037
0.712,-0.033
0.712,-0.038
0.712,-0.037
0.712,-0.043
0.713,-0.037
0.713,-0.042
0.713,-0.042
0.713,-0.035
0.714,-0.037
0.714,-0.040
0.714,-0.037
0.714,-0.033
0.715,-0.035
0.715,-0.042
0.715,-0.038
0.715,-0.043
0.716,-0.042
0.716,-0.037
0.716,-0.038
0.716,-0.033
0.717,-0.035
0.717,-0.032
0.717,-0.033
0.717,-0.030
0.718,-0.032
0.718,-0.027
0.718,-0.030
0.718,-0.023
0.719,-0.025
0.719,-0.020
0.719,-0.017
0.719,-0.022
0.720,-0.022
0.720,-0.018
0.720,-0.022
0.720,-0.017
0.721,-0.020
0.721,-0.017
0.721,-0.022
0.721,-0.015
0.722,-0.017
0.722,-0.022
0.722,-0.020
0.722,-0.025
0.723,-0.023
0.723,-0.020
0.723,-0.023
0.723,-0.018
0.724,-0.023
0.724,-0.018
0.724,-0.023
0.724,-0.018
0.725,-0.017
0.725,-0.023
0.725,-0.018
0.725,-0.013
0.726,-0.012
0.726,-0.017
0.726,-0.017
0.726,-0.012
0.727,-0.015
0.727,-0.012
0.727,-0.013
0.727,-0.008
0.728,-0.012
0.728,-0.008
0.728,-0.010
0.728,-0.007
0.729,-0.010
0.729,-0.005
0.729,-0.005
0.729,-0.010
0.730,-0.010
0.730,-0.005
0.730,-0.005
0.730,-0.010
0.731,-0.005
0.731,-0.012
0.731,-0.007
0.731,-0.012
0.732,-0.010
0.732,-0.017
0.732,-0.015
0.732,-0.012
0.733,-0.013
0.733,-0.018
0.733,-0.017
0.733,-0.022
0.734,-0.015
0.734,-0.020
0.734,-0.017
0.734,-0.013
0.735,-0.013
0.735,-0.008
0.735,-0.010
0.735,-0.003
0.736,-0.005
0.736,0.000
0.736,0.002
0.736,-0.003
0.737,0.000
0.737,-0.005
0.737,-0.003
0.737,0.002
0.738,0.002
0.738,-0.003
0.738,0.000
0.738,0.003
0.739,0.003
0.739,-0.002
0.739,0.000
0.739,0.005
0.740,0.002
0.740,0.007
0.740,0.003
0.740,0.002
0.741,0.003
0.741,-0.003
0.741,0.000
0.741,-0.005
0.742,-0.005
0.742,-0.003
0.742,-0.005
0.742,-0.002
0.743,-0.002
0.743,-0.007
0.743,-0.003
0.743,-0.010
0.744,-0.012
0.744,-0.005
0.744,-0.008
0.744,-0.002
0.745,-0.005
0.745,0.000
0.745,0.000
0.745,-0.005
0.746,-0.003
0.746,-0.010
0.746,-0.010
0.746,-0.017
0.747,-0.017
0.747,-0.023
0.747,-0.018
0.747,-0.030
0.748,-0.033
0.748,-0.020
0.748,-0.020
0.748,-0.002
0.749,0.000
0.749,-0.005
0.749,-0.005
0.749,-0.022
0.750,-0.023
0.750,-0.035
0.750,-0.035
0.750,-0.018
0.750,0.100
0.751,-0.018
0.751,-0.005
0.751,-0.002
0.751,0.043
0.752,0.045
0.752,0.085
0.752,0.087
0.752,0.103
0.753,0.102
0.753,0.107
0.753,0.103
0.753,0.067
0.754,0.065
0.754,0.027
0.754,0.027
0.754,0.047
0.755,0.045
0.755,-0.035
0.755,-0.040
0.755,-0.072
0.756,-0.057
0.756,-0.035
0.756,-0.013
0.756,-0.050
0.757,-0.058
0.757,-0.388
0.757,-0.403
0.757,-0.535
0.758,-0.480
0.758,-0.045
0.758,-0.030
0.758,0.180
0.759,0.175
0.759,-0.043
0.759,-0.083
0.759,0.117
0.760,0.283
0.760,-0.018
0.760,0.138
0.760,0.347
0.761,0.363
0.761,0.335
0.761,0.332
0.761,0.295
0.762,0.327
0.762,0.218
0.762,0.202
0.762,0.030
0.763,0.022
0.763,-0.078
0.763,-0.022
0.763,0.080
0.764,0.088
0.764,-0.037
0.764,-0.042
0.764,0.008
0.765,0.012
0.765,0.062
0.765,0.060
0.765,0.043
0.766,0.043
0.766,0.032
0.766,0.030
0.766,0.022
0.767,0.022
0.767,0.042
0.767,0.055
0.767,-0.067
0.768,-0.067
0.768,-0.037
0.768,-0.035
0.768,0.000
0.769,-0.003
0.769,0.003
0.769,0.003
0.769,-0.003
0.770,-0.002
0.770,-0.005
0.770,-0.007
0.770,-0.010
0.771,-0.010
0.771,-0.017
0.771,-0.015
0.771,-0.010
0.772,-0.010
0.772,-0.015
0.772,-0.012
0.772,-0.017
0.773,-0.013
0.773,-0.018
0.773,-0.015
0.773,-0.018
0.774,-0.022
0.774,-0.015
0.774,-0.018
0.774,-0.013
0.775,-0.017
0.775,-0.008
0.775,-0.007
0.775,-0.017
0.776,-0.017
0.776,-0.030
0.776,-0.027
0.776,0.000
0.777,0.003
0.777,0.063
0.777,0.087
0.777,0.047
0.778,0.038
0.778,-0.052
0.778,-0.033
0.778,0.078
0.779,0.072
0.779,-0.070
0.779,-0.062
0.779,-0.190
0.780,-0.175
0.780,-0.042
0.780,-0.033
0.780,0.278
0.781,0.322
0.781,0.253
0.781,0.243
0.781,0.185
0.782,0.190
0.782,0.068
0.782,0.055
0.782,0.075
0.783,0.100
0.783,0.050
0.783,0.062
0.783,-0.007
0.784,-0.013
0.784,-0.138
0.784,-0.122
0.784,-0.058
0.785,-0.067
0.785,-0.020
0.785,-0.018
0.785,0.045
0.786,0.058
0.786,0.035
0.786,0.033
0.786,-0.073
0.787,-0.077
0.787,0.025
0.787,0.025
0.787,-0.137
0.788,0.237
0.788,-0.342
0.788,-0.208
0.788,-0.037
0.789,-0.070
0.789,0.028
0.789,0.057
0.789,0.025
0.790,0.018
0.790,-0.050
0.790,-0.037
0.790,-0.007
0.791,-0.008
0.791,-0.002
0.791,-0.005
0.791,-0.015
0.792,-0.015
0.792,-0.023
0.792,-0.022
0.792,-0.027
0.793,-0.023
0.793,-0.028
0.793,-0.027
0.793,-0.022
0.794,-0.020
0.794,-0.025
0.794,-0.023
0.794,-0.032
0.795,-0.030
0.795,-0.033
0.795,-0.033
0.795,-0.027
0.796,-0.030
0.796,-0.025
0.796,-0.027
0.796,-0.020
0.797,-0.023
0.797,-0.020
0.797,-0.023
0.797,-0.018
0.798,-0.022
0.798,-0.013
0.798,-0.018
0.798,-0.015
0.799,-0.013
0.799,-0.020
0.799,-0.018
0.799,-0.015
0.800,-0.018
0.800,-0.023
0.800,-0.020
0.800,-0.025
0.801,-0.025
0.801,-0.018
0.801,-0.020
0.801,-0.010
0.802,-0.013
0.802,-0.005
0.802,-0.008
0.802,-0.005
0.803,-0.008
0.803,-0.005
0.803,-0.010
0.803,-0.005
0.804,-0.012
0.804,-0.007
0.804,-0.012
0.804,-0.020
0.805,-0.018
0.805,-0.028
0.805,-0.027
0.805,-0.030
0.806,-0.030
0.806,-0.025
0.806,-0.030
0.806,-0.022
0.807,-0.025
0.807,-0.018
0.807,-0.020
0.807,-0.015
0.808,-0.018
0.808,-0.013
0.808,-0.015
0.808,-0.010
0.809,-0.013
0.809,-0.010
0.809,-0.013
0.809,-0.010
0.810,-0.013
0.810,-0.008
0.810,-0.007
0.810,-0.012
0.811,-0.005
0.811,-0.012
0.811,-0.012
0.811,-0.008
0.812,-0.012
0.812,-0.018
0.812,-0.018
0.812,-0.023
0.813,-0.023
0.813,-0.017
0.813,-0.015
0.814,-0.007
0.814,-0.007
0.814,-0.018
0.814,-0.020
0.815,-0.032
0.815,-0.032
0.815,-0.022
0.815,-0.023
0.816,-0.010
0.816,-0.012
0.816,-0.003
0.816,-0.002
0.817,-0.005
0.817,-0.005
0.817,-0.002
0.817,0.002
0.818,-0.005
0.818,-0.003
0.818,-0.008
0.818,-0.012
0.819,-0.008
0.819,-0.012
0.819,-0.008
0.819,-0.007
0.820,-0.013
0.820,-0.013
0.820,-0.008
0.820,-0.012
0.821,-0.005
0.821,-0.003
0.821,-0.007
0.821,-0.005
0.822,0.000
0.822,-0.002
0.822,-0.005
0.822,-0.003
0.823,-0.010
0.823,-0.007
0.823,-0.003
0.823,-0.002
0.824,0.025
0.824,0.025
0.824,0.045
0.824,0.048
0.825,0.057
0.825,0.055
0.825,0.025
0.825,0.025
0.826,-0.025
0.826,-0.027
0.826,-0.078
0.826,-0.083
0.827,-0.067
0.827,-0.058
0.827,-0.100
0.827,-0.108
0.828,-0.255
0.828,-0.250
0.828,-0.120
0.828,-0.113
0.829,0.003
0.829,0.007
0.829,0.043
0.829,0.042
0.830,0.047
0.830,0.042
0.830,0.050
0.830,0.050
0.831,0.040
0.831,0.037
0.831,0.012
0.831,0.033
0.832,0.055
0.832,0.048
0.832,0.055
0.832,0.063
0.833,0.010
0.833,0.005
0.833,-0.027
0.833,-0.002
0.834,0.052
0.834,0.048
0.834,-0.082
0.834,-0.080
0.835,-0.022
0.835,-0.020
0.835,0.007
0.835,0.008
0.836,0.012
0.836,0.010
0.836,0.015
0.836,0.012
0.837,-0.003
0.837,-0.007
0.837,-0.025
0.837,-0.025
0.838,-0.015
0.838,-0.013
0.838,-0.002
0.838,-0.005
0.839,0.005
0.839,0.002
0.839,0.005
0.839,0.005
0.840,-0.002
0.840,0.000
0.840,-0.008
0.840,-0.007
0.841,0.027
0.841,0.030
0.841,0.070
0.841,0.068
0.842,0.090
0.842,0.090
0.842,0.062
0.842,0.060
0.843,-0.062
0.843,-0.068
0.843,-0.230
0.843,-0.235
0.844,-0.173
0.844,-0.168
0.844,-0.062
0.844,-0.058
0.845,0.003
0.845,0.010
0.845,-0.003
0.845,-0.003
0.846,-0.037
0.846,-0.022
0.846,0.060
0.846,0.063
0.847,0.020
0.847,0.040
0.847,-0.075
0.847,-0.070
0.848,0.203
0.848,0.145
0.848,-0.195
0.848,-0.152
0.849,0.117
0.849,0.305
0.849,-0.163
0.849,-0.028
0.850,0.077
0.850,0.078
0.850,0.100
0.850,0.098
0.851,0.080
0.851,0.080
0.851,0.063
0.851,0.063
0.852,0.077
0.852,0.078
0.852,0.118
0.852,0.130
0.853,0.018
0.853,-0.052
0.853,0.022
0.853,0.005
0.854,0.178
0.854,0.190
0.854,0.338
0.854,0.327
0.855,0.173
0.855,0.180
0.855,0.228
0.855,0.175
0.856,0.060
0.856,0.065
0.856,0.042
0.856,0.035
0.857,-0.028
0.857,-0.007
0.857,0.028
0.857,0.030
0.858,0.022
0.858,0.022
0.858,0.050
0.858,0.052
0.859,0.102
0.859,0.102
0.859,-0.128
0.859,-0.147
0.860,-0.435
0.860,-0.435
0.860,-0.240
0.860,-0.230
0.861,-0.012
0.861,-0.003
0.861,0.070
0.861,0.052
0.862,-0.012
0.862,0.022
0.862,-0.048
0.862,-0.062
0.863,-0.118
0.863,-0.090
0.863,-0.007
0.863,-0.005
0.864,0.010
0.864,0.010
0.864,0.015
0.864,0.012
0.865,0.017
0.865,0.013
0.865,-0.047
0.865,-0.048
0.866,-0.018
0.866,-0.018
0.866,-0.012
0.866,-0.013
0.867,-0.027
0.867,-0.023
0.867,-0.028
0.867,-0.030
0.868,-0.027
0.868,-0.030
0.868,-0.027
0.868,-0.025
0.869,-0.030
0.869,-0.030
0.869,-0.025
0.869,-0.027
0.870,-0.022
0.870,-0.023
0.870,-0.015
0.870,-0.018
0.871,-0.008
0.871,-0.012
0.871,-0.033
0.871,-0.033
0.872,-0.028
0.872,-0.032
0.872,0.028
0.872,0.030
0.873,0.140
0.873,-0.052
0.873,0.210
0.873,0.250
0.874,0.405
0.874,0.313
0.874,0.137
0.874,0.130
0.875,0.018
0.875,0.015
0.875,-0.028
0.875,-0.028
0.875,-0.017
0.876,-0.015
0.876,-0.020
0.876,-0.022
0.876,-0.085
0.877,-0.098
0.877,-0.075
0.877,-0.072
0.877,-0.032
0.878,-0.028
0.878,0.023
0.878,0.023
0.878,0.043
0.879,0.045
0.879,0.003
0.879,-0.002
0.879,-0.130
0.880,-0.132
0.880,-0.100
0.880,-0.097
0.880,-0.063
0.881,-0.062
0.881,-0.022
0.881,-0.018
0.881,0.038
0.882,0.062
0.882,0.008
0.882,0.000
0.882,-0.088
0.883,-0.052
0.883,-0.085
0.883,-0.075
0.883,-0.012
0.884,-0.007
0.884,0.118
0.884,0.127
0.884,0.015
0.885,0.002
0.885,-0.218
0.885,-0.167
0.885,-0.247
0.886,-0.270
0.886,0.155
0.886,0.240
0.886,-0.327
0.887,-0.213
0.887,-0.108
0.887,-0.095
0.887,0.035
0.888,-0.008
0.888,-0.040
0.888,0.033
0.888,-0.015
0.889,-0.015
0.889,0.023
0.889,0.003
0.889,-0.003
0.890,-0.002
0.890,0.030
0.890,0.005
0.890,0.022
0.891,0.022
0.891,0.033
0.891,0.032
0.891,0.040
0.892,0.038
0.892,0.028
0.892,0.030
0.892,0.038
0.893,0.040
0.893,0.060
0.893,0.063
0.893,0.080
0.894,0.080
0.894,0.068
0.894,0.065
0.894,0.020
0.895,0.017
0.895,-0.033
0.895,-0.035
0.895,-0.072
0.896,-0.072
0.896,-0.055
0.896,-0.053
0.896,-0.187
0.897,-0.195
0.897,-0.248
0.897,-0.202
0.897,-0.067
0.898,-0.062
0.898,0.022
0.898,0.023
0.898,0.040
0.899,0.038
0.899,0.035
0.899,0.035
0.899,0.040
0.900,0.040
0.900,0.005
0.900,-0.005
0.900,0.030
0.901,0.030
0.901,0.033
0.901,0.028
0.901,0.043
0.902,0.048
0.902,-0.023
0.902,-0.022
0.902,0.022
0.903,0.050
0.903,0.013
0.903,0.000
0.903,-0.075
0.904,-0.050
0.904,0.017
0.904,0.018
0.904,0.032
0.905,0.028
0.905,0.018
0.905,0.020
0.905,0.010
0.906,0.012
0.906,0.005
0.906,0.005
0.906,0.003
0.907,0.002
0.907,0.007
0.907,0.005
0.907,0.010
0.908,0.007
0.908,0.012
0.908,0.012
0.908,0.008
0.909,0.012
0.909,0.007
0.909,0.010
0.909,0.005
0.910,0.008
0.910,0.005
0.910,0.005
0.910,0.010
0.911,0.008
0.911,0.003
0.911,0.007
0.911,0.002
0.912,0.003
0.912,0.000
0.912,0.002
0.912,-0.002
0.913,-0.003
0.913,0.000
0.913,-0.003
0.913,0.002
0.914,-0.003
0.914,0.002
0.914,-0.003
0.914,0.002
0.915,0.002
0.915,-0.003
0.915,-0.003
0.915,0.003
0.916,-0.003
0.916,0.000
0.916,-0.002
0.916,0.005
0.917,0.003
0.917,0.010
0.917,0.008
0.917,0.003
0.918,0.002
0.918,0.007
0.918,0.000
0.918,-0.010
0.919,-0.010
0.919,-0.027
0.919,-0.027
0.919,-0.017
0.920,-0.018
0.920,-0.005
0.920,0.000
0.920,-0.010
0.921,-0.010
0.921,-0.028
0.921,-0.035
0.921,-0.027
0.922,-0.023
0.922,0.003
0.922,0.003
0.922,0.030
0.923,0.028
0.923,0.032
0.923,0.028
0.923,-0.005
0.924,-0.008
0.924,-0.105
0.924,-0.115
0.924,-0.088
0.925,-0.085
0.925,-0.012
0.925,-0.008
0.925,0.038
0.926,0.042
0.926,0.088
0.926,0.092
0.926,0.140
0.927,0.138
0.927,0.057
0.927,0.002
0.927,0.078
0.928,0.065
0.928,0.200
0.928,0.190
0.928,0.297
0.929,0.355
0.929,-0.010
0.929,0.008
0.929,0.163
0.930,0.143
0.930,0.135
0.930,0.140
0.930,0.067
0.931,0.055
0.931,-0.007
0.931,-0.002
0.931,0.033
0.932,0.035
0.932,0.018
0.932,0.017
0.932,-0.005
0.933,-0.005
0.933,-0.017
0.933,-0.015
0.933,-0.023
0.934,-0.022
0.934,-0.028
0.934,-0.025
0.934,-0.030
0.935,-0.030
0.935,-0.027
0.935,-0.025
0.935,-0.028
0.936,-0.027
0.936,0.012
0.936,0.012
0.936,-0.107
0.937,-0.102
0.937,-0.063
0.937,-0.060
0.938,-0.035
0.938,-0.035
0.938,-0.028
0.938,-0.030
0.939,-0.035
0.939,-0.033
0.939,-0.037
0.939,-0.033
0.940,-0.040
0.940,-0.042
0.940,-0.035
0.940,-0.040
0.941,-0.033
0.941,-0.035
0.941,-0.038
0.941,-0.035
0.942,-0.030
0.942,-0.032
0.942,-0.027
0.942,-0.030
0.943,-0.025
0.943,-0.028
0.943,-0.022
0.943,-0.023
0.944,-0.018
0.944,-0.018
0.944,-0.023
0.944,-0.020
0.945,-0.027
0.945,-0.023
0.945,-0.028
0.945,-0.025
0.946,-0.002
0.946,0.000
0.946,0.035
0.946,0.037
0.947,0.060
0.947,0.065
0.947,0.053
0.947,0.052
0.948,-0.015
0.948,-0.020
0.948,-0.100
0.948,-0.105
0.949,-0.087
0.949,-0.083
0.949,0.002
0.949,0.007
0.950,0.088
0.950,0.088
0.950,-0.162
0.950,-0.178
0.951,-0.437
0.951,-0.435
0.951,-0.242
0.951,-0.232
0.952,-0.010
0.952,-0.002
0.952,0.135
0.952,0.130
0.953,0.068
0.953,0.065
0.953,-0.052
0.953,-0.125
0.954,0.120
0.954,0.197
0.954,-0.223
0.954,-0.018
0.955,0.090
0.955,0.090
0.955,0.102
0.955,0.098
0.956,0.063
0.956,0.062
0.956,-0.028
0.956,-0.032
0.957,-0.010
0.957,-0.008
0.957,0.003
0.957,0.005
0.958,-0.002
0.958,-0.003
0.958,-0.015
0.958,-0.018
0.959,-0.012
0.959,-0.012
0.959,0.000
0.959,-0.002
0.960,0.008
0.960,0.007
0.960,0.013
0.960,0.012
0.961,0.018
0.961,0.013
0.961,0.020
0.961,0.017
0.962,0.025
0.962,0.025
0.962,0.028
0.962,0.032
0.963,0.027
0.963,0.028
0.963,0.017
0.963,0.015
0.964,-0.030
0.964,-0.030
0.964,-0.058
0.964,-0.058
0.965,-0.032
0.965,-0.032
0.965,0.013
0.965,0.013
0.966,0.025
0.966,0.023
0.966,0.000
0.966,-0.003
0.967,0.007
0.967,0.005
0.967,0.022
0.967,0.020
0.968,0.052
0.968,0.053
0.968,0.083
0.968,0.080
0.969,-0.108
0.969,-0.145
0.969,-0.112
0.969,-0.105
0.970,-0.015
0.970,-0.012
0.970,0.013
0.970,0.017
0.971,0.010
0.971,0.010
0.971,0.003
0.971,0.007
0.972,0.010
0.972,0.008
0.972,0.002
0.972,0.005
0.973,-0.002
0.973,0.000
0.973,0.003
0.973,0.002
0.974,-0.003
0.974,0.000
0.974,-0.007
0.974,-0.007
0.975,-0.015
0.975,-0.010
0.975,-0.013
0.975,-0.013
0.976,-0.008
0.976,-0.010
0.976,-0.015
0.976,-0.015
0.977,-0.012
0.977,-0.013
0.977,-0.007
0.977,-0.008
0.978,-0.003
0.978,-0.005
0.978,0.015
0.978,0.017
0.979,0.048
0.979,0.050
0.979,0.067
0.979,0.072
0.980,0.060
0.980,0.060
0.980,0.015
0.980,0.012
0.981,-0.038
0.981,-0.042
0.981,-0.075
0.981,-0.073
0.982,-0.062
0.982,-0.063
0.982,-0.223
0.982,-0.263
0.983,-0.213
0.983,-0.210
0.983,-0.062
0.983,-0.057
0.984,0.017
0.984,0.018
0.984,0.035
0.984,0.035
0.985,0.047
0.985,0.047
0.985,0.067
0.985,0.068
0.986,0.038
0.986,0.033
0.986,0.057
0.986,0.053
0.987,0.012
0.987,0.007
0.987,0.048
0.987,0.037
0.988,0.103
0.988,-0.040
0.988,0.310
0.988,0.493
0.989,0.335
0.989,0.308
0.989,0.088
0.989,0.087
0.990,-0.002
0.990,0.002
0.990,0.048
0.990,0.052
0.991,0.108
0.991,0.107
0.991,0.022
0.991,0.017
0.992,-0.080
0.992,0.050
0.992,-0.082
0.992,-0.087
0.993,0.207
0.993,0.142
0.993,-0.417
0.993,-0.098
0.994,-0.052
0.994,-0.080
0.994,-0.008
0.994,-0.003
0.995,0.037
0.995,0.015
0.995,0.102
0.995,0.103
0.996,0.057
0.996,0.048
0.996,0.093
0.996,0.085
0.997,-0.080
0.997,-0.052
0.997,0.103
0.997,0.117
0.998,0.307
0.998,0.315
0.998,0.133
0.998,0.132
0.999,0.165
0.999,0.143
0.999,0.072
0.999,0.083
1.000,0.098
1.000,0.088
1.000,0.003
1.000,0.005
1.000,0.033
1.001,0.100
1.001,0.033
1.001,-0.003
1.002,-0.007
1.002,-0.115
1.002,-0.133
1.002,-0.108
1.002,-0.105
1.003,-0.047
1.003,-0.045
1.003,-0.023
1.004,-0.023
1.004,-0.002
1.004,0.017
1.004,-0.015
1.004,-0.030
1.005,0.005
1.005,0.008
1.005,0.042
1.006,0.042
1.006,-0.057
1.006,-0.110
1.006,-0.010
1.006,0.103
1.007,-0.212
1.007,-0.200
1.007,-0.045
1.008,-0.038
1.008,0.012
1.008,0.015
1.008,0.003
1.008,0.003
1.009,-0.010
1.009,-0.008
1.009,-0.002
1.010,-0.005
1.010,-0.017
1.010,-0.018
1.010,-0.028
1.010,-0.027
1.011,-0.032
1.011,-0.028
1.011,-0.035
1.012,-0.032
1.012,-0.037
1.012,-0.037
1.012,-0.030
1.012,-0.032
1.013,-0.015
1.013,-0.015
1.013,-0.002
1.014,-0.002
1.014,0.015
1.014,0.043
1.014,-0.042
1.014,-0.052
1.015,-0.090
1.015,-0.068
1.015,-0.030
1.016,-0.027
1.016,0.005
1.016,0.007
1.016,0.058
1.016,0.070
1.017,-0.003
1.017,-0.010
1.017,-0.162
1.018,-0.207
1.018,-0.162
1.018,-0.157
1.018,-0.087
1.018,-0.083
1.019,-0.047
1.019,-0.048
1.019,-0.028
1.020,-0.025
1.020,0.015
1.020,0.017
1.020,0.130
1.020,0.137
1.021,-0.023
1.021,-0.027
1.021,-0.065
1.022,-0.062
1.022,0.037
1.022,0.042
1.022,0.052
1.022,0.035
1.023,0.103
1.023,0.108
1.023,0.227
1.024,0.257
1.024,0.145
1.024,0.128
1.024,-0.328
1.024,-0.330
1.025,0.020
1.025,-0.035
1.025,0.105
1.026,0.132
1.026,0.528
1.026,0.537
1.026,0.232
1.026,0.223
1.027,0.107
1.027,0.097
1.027,-0.077
1.028,-0.073
1.028,0.023
1.028,0.025
1.028,0.048
1.028,0.047
1.029,0.013
1.029,0.012
1.029,0.002
1.030,0.002
1.030,-0.068
1.030,-0.077
1.030,-0.015
1.030,-0.013
1.031,0.030
1.031,0.030
1.031,0.053
1.032,0.058
1.032,0.040
1.032,0.038
1.032,-0.030
1.032,-0.033
1.033,-0.092
1.033,-0.092
1.033,-0.103
1.034,-0.103
1.034,-0.095
1.034,-0.095
1.034,-0.117
1.034,-0.117
1.035,-0.140
1.035,-0.118
1.035,-0.192
1.036,-0.197
1.036,-0.267
1.036,-0.263
1.036,-0.120
1.036,-0.112
1.037,0.030
1.037,0.068
1.037,0.017
1.038,0.012
1.038,-0.022
1.038,-0.013
1.038,0.288
1.038,0.163
1.039,-0.180
1.039,0.008
1.039,0.085
1.040,0.083
1.040,0.090
1.040,0.083
1.040,0.063
1.040,0.062
1.041,-0.025
1.041,-0.025
1.041,0.008
1.042,0.038
1.042,0.008
1.042,-0.003
1.042,-0.083
1.042,-0.060
1.043,0.003
1.043,0.003
1.043,0.013
1.044,0.008
1.044,0.002
1.044,0.002
1.044,-0.002
1.044,0.002
1.045,-0.002
1.045,0.000
1.045,-0.007
1.046,0.000
1.046,-0.007
1.046,-0.005
1.046,0.000
1.046,-0.005
1.047,-0.002
1.047,-0.005
1.047,-0.002
1.048,0.000
1.048,-0.005
1.048,0.000
1.048,-0.005
1.048,-0.002
1.049,-0.007
1.049,-0.003
1.049,0.000
1.050,-0.005
1.050,0.000
1.050,0.000
1.050,-0.005
1.050,0.003
1.051,-0.002
1.051,0.000
1.051,0.007
1.052,0.005
1.052,0.008
1.052,0.010
1.052,0.005
1.052,0.003
1.053,0.008
1.053,0.007
1.053,-0.013
1.054,-0.018
1.054,-0.010
1.054,-0.008
1.054,0.005
1.054,0.003
1.055,0.012
1.055,0.010
1.055,0.030
1.056,0.042
1.056,0.025
1.056,0.022
1.056,-0.045
1.056,-0.047
1.057,-0.030
1.057,-0.032
1.057,-0.047
1.058,-0.052
1.058,-0.043
1.058,-0.042
1.058,-0.013
1.058,-0.012
1.059,0.018
1.059,0.018
1.059,0.025
1.060,0.020
1.060,0.015
1.060,0.017
1.060,0.010
1.060,0.010
1.061,0.025
1.061,0.023
1.061,0.048
1.062,0.055
1.062,0.010
1.062,0.003
1.062,-0.073
1.062,-0.067
1.063,0.015
1.063,0.018
1.063,0.092
1.063,0.093
1.064,0.140
1.064,0.147
1.064,-0.018
1.065,-0.025
1.065,0.043
1.065,0.030
1.065,0.265
1.065,0.353
1.066,0.267
1.066,0.258
1.066,0.180
1.067,0.220
1.067,0.145
1.067,0.137
1.067,0.097
1.067,0.098
1.068,-0.008
1.068,-0.022
1.068,-0.012
1.069,-0.012
1.069,0.025
1.069,0.028
1.069,0.012
1.069,0.012
1.070,-0.030
1.070,-0.030
1.070,-0.075
1.071,-0.077
1.071,-0.093
1.071,-0.093
1.071,-0.060
1.071,-0.057
1.072,0.007
1.072,0.023
1.072,-0.062
1.073,-0.083
1.073,-0.043
1.073,-0.068
1.073,-0.042
1.073,-0.040
1.074,0.018
1.074,0.022
1.074,0.058
1.075,0.028
1.075,-0.160
1.075,-0.198
1.075,-0.127
1.075,-0.015
1.076,-0.137
1.076,0.280
1.076,-0.257
1.077,-0.270
1.077,0.032
1.077,-0.012
1.077,0.027
1.077,0.002
1.078,0.030
1.078,0.025
1.078,-0.052
1.079,0.033
1.079,-0.055
1.079,-0.075
1.079,0.088
1.079,0.183
1.080,-0.147
1.080,-0.143
1.080,-0.015
1.081,-0.012
1.081,0.043
1.081,0.043
1.081,0.055
1.081,0.055
1.082,0.040
1.082,0.050
1.082,0.042
1.083,0.043
1.083,0.035
1.083,0.040
1.083,0.030
1.083,0.030
1.084,-0.007
1.084,-0.007
1.084,-0.012
1.085,-0.008
1.085,0.005
1.085,0.010
1.085,0.005
1.085,0.008
1.086,0.003
1.086,0.005
1.086,0.018
1.087,0.018
1.087,0.057
1.087,0.028
1.087,-0.065
1.087,-0.048
1.088,-0.008
1.088,-0.007
1.088,0.017
1.089,0.018
1.089,0.013
1.089,0.015
1.089,0.012
1.089,0.012
1.090,0.017
1.090,0.013
1.090,0.017
1.091,0.013
1.091,0.017
1.091,0.017
1.091,0.010
1.091,0.010
1.092,0.013
1.092,0.015
1.092,0.007
1.093,0.007
1.093,-0.012
1.093,-0.012
1.093,-0.022
1.093,-0.017
1.094,0.010
1.094,0.012
1.094,0.057
1.095,0.057
1.095,-0.093
1.095,-0.108
1.095,-0.028
1.095,-0.003
1.096,-0.083
1.096,-0.097
1.096,-0.057
1.097,-0.052
1.097,0.023
1.097,0.028
1.097,0.087
1.097,0.087
1.098,0.130
1.098,-0.070
1.098,0.317
1.099,0.353
1.099,0.295
1.099,0.292
1.099,0.160
1.099,0.153
1.100,0.060
1.100,0.058
1.100,0.017
1.101,0.017
1.101,-0.007
1.101,-0.008
1.101,-0.025
1.101,-0.032
1.102,-0.025
1.102,-0.030
1.102,-0.023
1.103,-0.025
1.103,-0.030
1.103,-0.025
1.103,-0.030
1.103,-0.030
1.104,-0.025
1.104,-0.027
1.104,-0.032
1.105,-0.030
1.105,-0.035
1.105,-0.033
1.105,-0.032
1.105,-0.030
1.106,-0.023
1.106,-0.025
1.106,-0.030
1.107,-0.028
1.107,-0.022
1.107,-0.023
1.107,-0.015
1.107,-0.018
1.108,-0.010
1.108,-0.008
1.108,-0.015
1.109,-0.015
1.109,-0.010
1.109,-0.012
1.109,-0.018
1.109,-0.018
1.110,-0.023
1.110,-0.023
1.110,-0.032
1.111,-0.030
1.111,-0.040
1.111,-0.038
1.111,-0.045
1.111,-0.047
1.112,-0.037
1.112,-0.038
1.112,-0.030
1.113,-0.030
1.113,-0.025
1.113,-0.025
1.113,-0.030
1.113,-0.027
1.114,0.003
1.114,0.005
1.114,0.038
1.115,0.040
1.115,0.057
1.115,0.058
1.115,0.035
1.115,0.035
1.116,-0.013
1.116,-0.013
1.116,-0.062
1.117,-0.070
1.117,-0.058
1.117,-0.048
1.117,-0.075
1.117,-0.080
1.118,-0.252
1.118,-0.247
1.118,-0.138
1.119,-0.133
1.119,-0.005
1.119,0.000
1.119,0.052
1.119,0.052
1.120,0.057
1.120,0.053
1.120,0.060
1.121,0.065
1.121,0.057
1.121,0.055
1.121,0.020
1.121,0.028
1.122,0.053
1.122,0.050
1.122,0.062
1.123,0.077
1.123,0.057
1.123,0.050
1.123,0.010
1.123,0.028
1.124,0.082
1.124,0.090
1.124,-0.037
1.125,-0.040
1.125,0.025
1.125,0.030
1.125,0.123
1.125,0.127
1.126,0.155
1.126,0.125
1.126,-0.232
1.127,-0.248
1.127,-0.388
1.127,-0.345
1.127,-0.093
1.127,-0.082
1.128,0.120
1.128,0.148
1.128,0.080
1.129,0.062
1.129,0.083
1.129,0.090
1.129,-0.058
1.129,-0.060
1.130,0.002
1.130,0.007
1.130,0.048
1.131,0.048
1.131,0.053
1.131,0.048
1.131,0.043
1.131,0.047
1.132,0.017
1.132,0.012
1.132,-0.012
1.133,0.012
1.133,0.048
1.133,0.060
1.133,0.048
1.133,0.047
1.134,0.028
1.134,0.028
1.134,0.038
1.135,0.038
1.135,0.052
1.135,0.050
1.135,0.067
1.135,0.067
1.136,0.087
1.136,0.073
1.136,-0.132
1.137,-0.137
1.137,-0.320
1.137,-0.320
1.137,-0.192
1.137,-0.187
1.138,-0.063
1.138,-0.057
1.138,-0.002
1.139,-0.057
1.139,-0.010
1.139,-0.003
1.139,0.130
1.139,0.137
1.140,0.232
1.140,0.197
1.140,-0.100
1.141,-0.057
1.141,0.060
1.141,0.075
1.141,0.298
1.141,0.283
1.142,0.192
1.142,0.460
1.142,0.007
1.143,0.020
1.143,0.163
1.143,0.165
1.143,0.195
1.143,0.197
1.144,0.073
1.144,0.073
1.144,0.047
1.145,0.050
1.145,0.022
1.145,0.020
1.145,-0.073
1.145,-0.078
1.146,-0.112
1.146,-0.097
1.146,-0.027
1.147,-0.025
1.147,0.017
1.147,0.018
1.147,0.033
1.147,0.028
1.148,0.018
1.148,0.020
1.148,-0.008
1.149,-0.010
1.149,-0.110
1.149,-0.115
1.149,-0.107
1.149,-0.117
1.150,-0.153
1.150,-0.132
1.150,-0.038
1.151,-0.035
1.151,0.007
1.151,0.012
1.151,-0.017
1.151,-0.035
1.152,0.013
1.152,0.015
1.152,0.063
1.153,0.067
1.153,-0.028
1.153,-0.080
1.153,0.005
1.153,0.147
1.154,-0.187
1.154,-0.182
1.154,-0.023
1.155,-0.017
1.155,0.042
1.155,0.037
1.155,0.047
1.155,0.035
1.156,0.018
1.156,0.020
1.156,0.038
1.157,0.042
1.157,0.033
1.157,0.037
1.157,0.020
1.157,0.022
1.158,-0.007
1.158,-0.008
1.158,-0.043
1.159,-0.045
1.159,-0.062
1.159,-0.063
1.159,-0.040
1.159,-0.037
1.160,0.005
1.160,0.018
1.160,-0.052
1.161,-0.087
1.161,-0.012
1.161,-0.013
1.161,-0.162
1.161,-0.145
1.162,-0.043
1.162,-0.037
1.162,0.072
1.163,0.072
1.163,0.013
1.163,0.008
1.163,-0.040
1.163,0.068
1.164,-0.100
1.164,-0.088
1.164,0.292
1.165,-0.278
1.165,0.000
1.165,-0.043
1.165,0.038
1.165,0.043
1.166,0.112
1.166,0.110
1.166,0.002
1.167,0.000
1.167,0.013
1.167,0.002
1.167,-0.053
1.167,-0.063
1.168,-0.040
1.168,-0.038
1.168,-0.005
1.169,-0.005
1.169,0.017
1.169,0.018
1.169,-0.002
1.169,-0.003
1.170,-0.017
1.170,-0.015
1.170,-0.002
1.171,-0.002
1.171,0.022
1.171,0.023
1.171,0.013
1.171,0.013
1.172,-0.022
1.172,-0.023
1.172,-0.012
1.173,-0.012
1.173,0.000
1.173,-0.002
1.173,-0.010
1.173,-0.013
1.174,-0.007
1.174,-0.012
1.174,-0.003
1.175,-0.007
1.175,0.002
1.175,0.000
1.175,0.003
1.175,0.005
1.176,0.002
1.176,0.005
1.176,0.002
1.177,0.005
1.177,0.017
1.177,0.018
1.177,0.045
1.177,0.048
1.178,0.080
1.178,0.082
1.178,0.107
1.179,0.108
1.179,0.127
1.179,0.140
1.179,0.118
1.179,0.115
1.180,-0.038
1.180,-0.007
1.180,0.273
1.181,0.235
1.181,-0.073
1.181,0.005
1.181,0.283
1.181,0.282
1.182,0.038
1.182,-0.017
1.182,0.032
1.183,0.045
1.183,-0.030
1.183,-0.043
1.183,0.000
1.183,0.005
1.184,0.078
1.184,0.080
1.184,0.032
1.185,0.030
1.185,-0.015
1.185,-0.007
1.185,-0.017
1.185,-0.017
1.186,0.000
1.186,0.002
1.186,-0.070
1.187,-0.065
1.187,-0.012
1.187,-0.007
1.187,-0.108
1.188,-0.143
1.188,-0.073
1.188,-0.070
1.188,0.065
1.188,0.112
1.189,-0.097
1.189,0.115
1.189,0.308
1.190,0.280
1.190,0.148
1.190,0.143
1.190,0.042
1.190,0.038
1.191,-0.012
1.191,-0.012
1.191,-0.037
1.192,-0.038
1.192,-0.050
1.192,-0.048
1.192,-0.057
1.192,-0.057
1.193,-0.050
1.193,-0.052
1.193,-0.045
1.194,-0.048
1.194,-0.043
1.194,-0.042
1.194,-0.047
1.194,-0.043
1.195,-0.053
1.195,-0.052
1.195,-0.048
1.196,-0.050
1.196,-0.043
1.196,-0.042
1.196,-0.030
1.196,-0.032
1.197,-0.025
1.197,-0.028
1.197,-0.033
1.198,-0.028
1.198,0.000
1.198,0.002
1.198,0.063
1.198,0.070
1.199,-0.045
1.199,-0.058
1.199,-0.408
1.200,-0.435
1.200,-0.315
1.200,-0.303
1.200,-0.055
1.200,-0.045
1.201,0.095
1.201,0.093
1.201,0.008
1.202,0.010
1.202,0.033
1.202,0.012
1.202,-0.110
1.202,-0.100
1.203,-0.022
1.203,-0.018
1.203,0.008
1.204,0.005
1.204,0.010
1.204,0.012
1.204,0.005
1.204,0.008
1.205,-0.048
1.205,-0.062
1.205,-0.030
1.206,-0.030
1.206,-0.017
1.206,-0.018
1.206,-0.013
1.206,-0.017
1.207,-0.008
1.207,-0.013
1.207,-0.007
1.208,-0.008
1.208,-0.012
1.208,-0.010
1.208,-0.007
1.208,-0.010
1.209,-0.005
1.209,-0.010
1.209,-0.005
1.210,-0.005
1.210,-0.008
1.210,-0.002
1.210,-0.007
1.210,-0.005
1.211,-0.010
1.211,-0.007
1.211,-0.012
1.212,-0.007
1.212,-0.010
1.212,-0.010
1.212,-0.007
1.212,-0.008
1.213,-0.013
1.213,-0.012
1.213,-0.007
1.214,-0.012
1.214,-0.007
1.214,-0.008
1.214,-0.013
1.214,-0.010
1.215,-0.013
1.215,-0.012
1.215,-0.018
1.216,-0.020
1.216,-0.017
1.216,-0.022
1.216,-0.017
1.216,-0.023
1.217,-0.017
1.217,-0.018
1.217,-0.023
1.218,-0.025
1.218,-0.022
1.218,-0.022
1.218,-0.028
1.218,-0.028
1.219,-0.023
1.219,-0.027
1.219,-0.020
1.220,-0.022
1.220,-0.013
1.220,-0.015
1.220,-0.005
1.220,-0.003
1.221,-0.008
1.221,-0.005
1.221,0.002
1.222,0.003
1.222,0.015
1.222,0.013
1.222,0.027
1.222,0.025
1.223,0.053
1.223,0.057
1.223,0.113
1.224,0.115
1.224,0.178
1.224,0.187
1.224,-0.007
1.224,-0.012
1.225,0.037
1.225,0.008
1.225,0.143
1.226,0.160
1.226,0.097
1.226,0.042
1.226,0.103
1.226,0.185
1.227,0.102
1.227,0.097
1.227,0.037
1.228,0.050
1.228,-0.058
1.228,-0.070
1.228,-0.005
1.228,0.002
1.229,0.093
1.229,0.097
1.229,-0.005
1.230,-0.058
1.230,0.033
1.230,0.185
1.230,-0.132
1.230,-0.132
1.231,-0.092
1.231,-0.088
1.231,0.020
1.232,0.025
1.232,0.098
1.232,0.103
1.232,0.090
1.232,0.088
1.233,0.023
1.233,0.020
1.233,-0.082
1.234,-0.087
1.234,-0.112
1.234,-0.107
1.234,-0.063
1.234,-0.058
1.235,-0.018
1.235,-0.013
1.235,-0.040
1.236,-0.043
1.236,-0.068
1.236,-0.055
1.236,-0.020
1.236,-0.023
1.237,-0.085
1.237,-0.083
1.237,0.017
1.238,0.035
1.238,-0.058
1.238,-0.057
1.238,-0.107
1.238,-0.097
1.239,0.018
1.239,0.248
1.239,-0.233
1.240,-0.153
1.240,0.025
1.240,0.028
1.240,0.053
1.240,0.053
1.241,0.035
1.241,0.032
1.241,0.013
1.242,0.013
1.242,0.000
1.242,0.000
1.242,-0.008
1.242,-0.007
1.243,-0.010
1.243,-0.008
1.243,-0.013
1.244,-0.012
1.244,-0.017
1.244,-0.012
1.244,-0.020
1.244,-0.022
1.245,-0.013
1.245,-0.018
1.245,-0.015
1.246,-0.018
1.246,-0.010
1.246,-0.013
1.246,-0.005
1.246,-0.003
1.247,-0.010
1.247,-0.010
1.247,-0.030
1.248,-0.032
1.248,-0.017
1.248,-0.015
1.248,-0.040
1.248,-0.040
1.249,-0.027
1.249,-0.028
1.249,-0.020
1.250,-0.023
1.250,-0.003
1.250,-0.002
1.250,0.035
1.250,0.037
1.251,0.058
1.251,0.100
1.251,0.060
1.252,0.047
1.252,0.045
1.252,0.002
1.252,0.000
1.252,-0.045
1.253,-0.047
1.253,-0.082
1.253,-0.075
1.254,-0.057
1.254,-0.057
1.254,-0.207
1.254,-0.248
1.254,-0.198
1.255,-0.193
1.255,-0.057
1.255,-0.053
1.256,0.027
1.256,0.027
1.256,0.040
1.256,0.042
1.256,0.037
1.257,0.040
1.257,0.048
1.257,0.047
1.258,0.012
1.258,0.007
1.258,0.038
1.258,0.038
1.258,0.032
1.259,0.030
1.259,0.053
1.259,0.058
1.260,-0.005
1.260,-0.002
1.260,0.037
1.260,0.050
1.260,-0.038
1.261,-0.050
1.261,-0.113
1.261,-0.095
1.262,-0.028
1.262,-0.027
1.262,0.028
1.262,0.032
1.262,0.080
1.263,0.077
1.263,-0.043
1.263,-0.040
1.264,0.000
1.264,-0.038
1.264,-0.025
1.264,-0.025
1.264,0.033
1.265,0.035
1.265,0.070
1.265,0.062
1.266,-0.002
1.266,-0.005
1.266,0.128
1.266,0.145
1.266,-0.090
1.267,0.172
1.267,-0.475
1.267,-0.400
1.268,-0.137
1.268,-0.140
1.268,0.033
1.268,0.040
1.268,0.095
1.269,0.060
1.269,-0.023
1.269,0.012
1.270,0.053
1.270,0.055
1.270,0.102
1.270,0.057
1.270,-0.107
1.271,-0.103
1.271,-0.075
1.271,-0.072
1.272,0.025
1.272,0.020
1.272,-0.017
1.272,-0.018
1.272,-0.002
1.273,-0.002
1.273,0.020
1.273,0.022
1.274,0.002
1.274,0.007
1.274,0.018
1.274,0.018
1.274,0.028
1.275,0.027
1.275,0.033
1.275,0.033
1.276,0.042
1.276,0.042
1.276,0.037
1.276,0.035
1.276,0.012
1.277,0.012
1.277,0.002
1.277,0.007
1.278,0.038
1.278,0.042
1.278,0.082
1.278,0.078
1.278,-0.068
1.279,-0.078
1.279,0.008
1.279,0.030
1.280,-0.055
1.280,-0.057
1.280,-0.007
1.280,-0.003
1.280,0.082
1.281,0.098
1.281,0.080
1.281,0.077
1.282,0.033
1.282,0.052
1.282,0.118
1.282,0.132
1.282,0.063
1.283,0.052
1.283,-0.317
1.283,-0.387
1.284,-0.298
1.284,-0.288
1.284,-0.030
1.284,-0.020
1.284,0.145
1.285,0.145
1.285,0.065
1.285,0.065
1.286,0.090
1.286,0.087
1.286,-0.055
1.286,-0.048
1.286,0.025
1.287,0.027
1.287,0.043
1.287,0.043
1.288,0.030
1.288,0.030
1.288,0.023
1.288,0.025
1.288,-0.030
1.289,-0.050
1.289,-0.025
1.289,-0.023
1.290,-0.012
1.290,-0.015
1.290,-0.007
1.290,-0.007
1.290,-0.002
1.291,-0.003
1.291,0.003
1.291,0.000
1.292,0.008
1.292,0.005
1.292,0.013
1.292,0.015
1.292,0.003
1.293,0.003
1.293,0.038
1.293,0.040
1.294,0.117
1.294,-0.060
1.294,0.177
1.294,0.208
1.294,0.333
1.295,0.300
1.295,0.193
1.295,0.188
1.296,0.088
1.296,0.087
1.296,0.062
1.296,0.060
1.296,0.088
1.297,0.090
1.297,0.107
1.297,0.107
1.298,-0.073
1.298,-0.023
1.298,0.078
1.298,0.088
1.298,0.287
1.299,0.298
1.299,0.127
1.299,0.127
1.300,0.173
1.300,0.172
1.300,0.070
1.300,0.072
1.300,0.052
1.301,0.050
1.301,-0.065
1.301,-0.068
1.302,-0.045
1.302,-0.045
1.302,-0.035
1.302,-0.038
1.302,-0.058
1.303,-0.060
1.303,-0.070
1.303,-0.073
1.304,-0.068
1.304,-0.068
1.304,-0.065
1.304,-0.067
1.304,-0.062
1.305,-0.063
1.305,-0.067
1.305,-0.065
1.306,-0.062
1.306,-0.062
1.306,-0.057
1.306,-0.060
1.306,-0.055
1.307,-0.058
1.307,-0.053
1.307,-0.053
1.308,-0.055
1.308,-0.055
1.308,-0.050
1.308,-0.057
1.308,-0.048
1.309,-0.048
1.309,-0.055
1.309,-0.053
1.310,-0.047
1.310,-0.048
1.310,-0.053
1.310,-0.053
1.310,-0.048
1.311,-0.052
1.311,-0.032
1.311,-0.033
1.312,-0.017
1.312,-0.017
1.312,-0.007
1.312,-0.008
1.312,-0.022
1.313,-0.023
1.313,-0.065
1.313,-0.068
1.313,-0.118
1.314,-0.117
1.314,-0.053
1.314,-0.052
1.315,0.007
1.315,0.012
1.315,-0.015
1.315,-0.020
1.315,-0.082
1.316,-0.083
1.316,-0.145
1.316,-0.137
1.317,-0.082
1.317,-0.078
1.317,-0.040
1.317,-0.062
1.317,-0.220
1.318,-0.223
1.318,0.015
1.318,-0.045
1.319,-0.432
1.319,-0.422
1.319,-0.258
1.319,-0.248
1.319,-0.035
1.320,-0.025
1.320,0.133
1.320,0.135
1.321,0.095
1.321,0.125
1.321,0.295
1.321,0.505
1.321,0.053
1.322,0.172
1.322,0.265
1.322,0.203
1.323,0.458
1.323,0.448
1.323,0.077
1.323,0.090
1.323,0.328
1.324,0.345
1.324,0.215
1.324,0.208
1.325,0.155
1.325,0.192
1.325,0.035
1.325,0.035
1.325,0.127
1.326,0.095
1.326,0.063
1.326,0.072
1.327,0.035
1.327,0.035
1.327,0.018
1.327,0.015
1.327,-0.105
1.328,-0.105
1.328,0.002
1.328,0.002
1.329,-0.115
1.329,-0.115
1.329,-0.092
1.329,-0.092
1.329,-0.058
1.330,-0.060
1.330,-0.053
1.330,-0.055
1.331,-0.050
1.331,-0.053
1.331,-0.050
1.331,-0.052
1.331,-0.047
1.332,-0.045
1.332,-0.057
1.332,-0.057
1.333,-0.067
1.333,-0.058
1.333,-0.050
1.333,-0.050
1.333,-0.045
1.334,-0.043
1.334,-0.047
1.334,-0.047
1.335,-0.043
1.335,-0.040
1.335,-0.045
1.335,-0.043
1.335,-0.038
1.336,-0.040
1.336,-0.045
1.336,-0.037
1.337,-0.045
1.337,-0.038
1.337,-0.043
1.337,-0.043
1.337,-0.038
1.338,-0.042
1.338,-0.038
1.338,-0.042
1.339,-0.035
1.339,-0.038
1.339,-0.033
1.339,-0.037
1.339,-0.033
1.340,-0.035
1.340,-0.030
1.340,-0.035
1.341,-0.030
1.341,-0.035
1.341,-0.032
1.341,-0.035
1.341,-0.030
1.342,-0.028
1.342,-0.033
1.342,-0.033
1.343,-0.027
1.343,-0.027
1.343,-0.030
1.343,-0.025
1.343,-0.030
1.344,-0.028
1.344,-0.023
1.344,-0.028
1.345,-0.023
1.345,-0.027
1.345,-0.022
1.345,-0.028
1.345,-0.022
1.346,-0.027
1.346,-0.020
1.346,-0.023
1.347,-0.020
1.347,-0.022
1.347,-0.018
1.347,-0.018
1.347,-0.023
1.348,-0.022
1.348,-0.017
1.348,-0.015
1.349,-0.018
1.349,-0.018
1.349,-0.015
1.349,-0.018
1.349,-0.015
1.350,-0.018
1.350,-0.017
1.350,-0.020
1.351,-0.015
1.351,-0.018
1.351,-0.012
1.351,-0.012
1.351,-0.015
1.352,-0.015
1.352,-0.012
1.352,-0.013
1.353,-0.015
1.353,-0.012
1.353,-0.015
1.353,-0.015
1.353,-0.010
1.354,-0.013
1.354,-0.008
1.354,-0.010
1.355,-0.015
1.355,-0.008
1.355,-0.015
1.355,-0.007
1.355,-0.013
1.356,-0.012
1.356,-0.008
1.356,-0.012
1.357,-0.007
1.357,-0.010
1.357,-0.008
1.357,-0.008
1.357,-0.012
1.358,-0.008
1.358,-0.013
1.358,-0.013
1.359,-0.008
1.359,-0.010
1.359,0.008
1.359,0.007
1.359,0.028
1.360,0.028
1.360,0.042
1.360,0.043
1.361,0.028
1.361,0.028
1.361,-0.010
1.361,-0.013
1.361,-0.032
1.362,-0.028
1.362,0.035
1.362,0.040
1.363,0.153
1.363,0.167
1.363,-0.065
1.363,-0.088
1.363,-0.445
1.364,-0.472
1.364,-0.293
1.364,-0.280
1.365,0.043
1.365,0.055
1.365,0.233
1.365,0.218
1.365,0.068
1.366,0.070
1.366,0.047
1.366,0.038
1.367,-0.213
1.367,0.210
1.367,-0.265
1.367,-0.343
1.367,0.012
1.368,-0.030
1.368,0.105
1.368,0.112
1.369,0.238
1.369,0.232
1.369,-0.093
1.369,-0.090
1.369,0.053
1.370,0.065
1.370,0.342
1.370,0.362
1.371,0.218
1.371,0.212
1.371,0.198
1.371,0.238
1.371,0.137
1.372,0.135
1.372,0.113
1.372,0.112
1.373,-0.010
1.373,-0.007
1.373,-0.020
1.373,-0.005
1.373,0.008
1.374,0.008
1.374,-0.007
1.374,-0.007
1.375,-0.018
1.375,-0.017
1.375,-0.023
1.375,-0.022
1.375,-0.027
1.376,-0.022
1.376,-0.027
1.376,-0.023
1.377,-0.032
1.377,-0.030
1.377,-0.035
1.377,-0.032
1.377,-0.038
1.378,-0.037
1.378,-0.033
1.378,-0.033
1.379,-0.038
1.379,-0.037
1.379,-0.032
1.379,-0.033
1.379,-0.025
1.380,-0.025
1.380,-0.012
1.380,-0.012
1.381,-0.007
1.381,-0.007
1.381,-0.023
1.381,-0.023
1.381,-0.038
1.382,-0.038
1.382,-0.018
1.382,-0.018
1.383,0.033
1.383,0.043
1.383,-0.052
1.383,-0.060
1.383,-0.123
1.384,-0.087
1.384,-0.023
1.384,-0.058
1.385,-0.122
1.385,-0.102
1.385,-0.017
1.385,-0.013
1.385,0.038
1.386,0.037
1.386,-0.018
1.386,-0.032
1.387,-0.017
1.387,-0.017
1.387,-0.012
1.387,-0.013
1.387,-0.020
1.388,-0.018
1.388,-0.015
1.388,-0.012
1.389,-0.017
1.389,-0.013
1.389,-0.017
1.389,-0.018
1.389,-0.015
1.390,-0.018
1.390,-0.013
1.390,-0.018
1.391,-0.013
1.391,-0.015
1.391,-0.012
1.391,-0.015
1.391,-0.010
1.392,-0.015
1.392,-0.010
1.392,-0.010
1.393,-0.015
1.393,-0.008
1.393,-0.015
1.393,-0.012
1.393,-0.015
1.394,-0.008
1.394,-0.013
1.394,-0.010
1.395,-0.015
1.395,-0.013
1.395,0.000
1.395,0.002
1.395,0.043
1.396,0.045
1.396,0.078
1.396,0.083
1.397,0.077
1.397,0.078
1.397,0.033
1.397,0.030
1.397,-0.027
1.398,-0.028
1.398,-0.062
1.398,-0.063
1.399,0.002
1.399,0.025
1.399,-0.070
1.399,-0.085
1.399,-0.395
1.400,-0.432
1.400,-0.302
1.400,-0.292
1.401,-0.083
1.401,-0.078
1.401,0.035
1.401,0.040
1.401,0.028
1.402,0.040
1.402,0.102
1.402,0.102
1.403,0.195
1.403,0.207
1.403,0.025
1.403,0.023
1.403,-0.057
1.404,-0.062
1.404,-0.080
1.404,-0.068
1.405,-0.095
1.405,-0.115
1.405,-0.040
1.405,-0.035
1.405,0.047
1.406,0.048
1.406,-0.075
1.406,-0.073
1.407,0.005
1.407,-0.005
1.407,0.047
1.407,0.048
1.407,0.088
1.408,0.092
1.408,0.063
1.408,0.050
1.409,-0.063
1.409,0.183
1.409,-0.148
1.409,-0.133
1.409,0.008
1.410,0.015
1.410,0.105
1.410,0.108
1.411,0.087
1.411,0.083
1.411,0.002
1.411,-0.003
1.411,0.032
1.412,0.033
1.412,0.170
1.412,-0.027
1.413,0.283
1.413,0.312
1.413,0.412
1.413,0.372
1.413,0.175
1.414,0.168
1.414,0.067
1.414,0.067
1.415,0.058
1.415,0.057
1.415,0.068
1.415,0.073
1.415,0.052
1.416,0.050
1.416,-0.053
1.416,-0.028
1.417,-0.117
1.417,-0.112
1.417,-0.022
1.417,-0.018
1.417,0.017
1.418,0.022
1.418,0.017
1.418,0.015
1.419,0.008
1.419,0.010
1.419,-0.015
1.419,-0.015
1.419,-0.028
1.420,-0.027
1.420,-0.032
1.420,-0.028
1.421,-0.032
1.421,-0.032
1.421,-0.027
1.421,-0.028
1.421,-0.022
1.422,-0.023
1.422,-0.028
1.422,-0.023
1.423,-0.028
1.423,-0.025
1.423,-0.022
1.423,-0.020
1.423,-0.015
1.424,-0.018
1.424,-0.015
1.424,-0.015
1.425,-0.022
1.425,-0.018
1.425,-0.022
1.425,-0.020
1.425,-0.023
1.426,-0.022
1.426,-0.027
1.426,-0.022
1.427,-0.027
1.427,-0.022
1.427,-0.028
1.427,-0.028
1.427,-0.023
1.428,-0.025
1.428,-0.020
1.428,-0.018
1.429,-0.022
1.429,-0.018
1.429,-0.013
1.429,-0.013
1.429,-0.008
1.430,-0.008
1.430,-0.012
1.430,-0.008
1.431,-0.012
1.431,-0.010
1.431,-0.013
1.431,-0.015
1.431,-0.010
1.432,-0.010
1.432,-0.015
1.432,-0.012
1.433,-0.007
1.433,-0.010
1.433,-0.007
1.433,-0.005
1.433,-0.012
1.434,-0.005
1.434,-0.010
1.434,-0.008
1.435,-0.005
1.435,-0.003
1.435,-0.012
1.435,-0.008
1.435,-0.010
1.436,-0.008
1.436,-0.015
1.436,-0.013
1.437,-0.018
1.437,-0.015
1.437,-0.020
1.437,-0.017
1.438,-0.012
1.438,-0.017
1.438,-0.010
1.438,-0.008
1.438,0.023
1.439,0.023
1.439,0.050
1.439,0.052
1.440,0.063
1.440,0.063
1.440,0.042
1.440,0.040
1.440,-0.038
1.441,-0.043
1.441,-0.115
1.441,-0.117
1.442,-0.088
1.442,-0.087
1.442,-0.038
1.442,-0.035
1.442,-0.008
1.443,-0.012
1.443,-0.053
1.443,-0.055
1.444,-0.018
1.444,0.003
1.444,-0.027
1.444,-0.030
1.444,-0.062
1.445,-0.032
1.445,0.030
1.445,0.045
1.446,0.003
1.446,-0.003
1.446,-0.057
1.446,-0.053
1.446,0.265
1.447,0.272
1.447,-0.223
1.447,-0.013
1.448,0.070
1.448,0.070
1.448,0.087
1.448,0.083
1.448,0.058
1.449,0.060
1.449,0.082
1.449,0.083
1.450,0.143
1.450,0.158
1.450,0.067
1.450,0.053
1.450,-0.355
1.451,-0.427
1.451,-0.343
1.451,-0.332
1.452,-0.038
1.452,-0.027
1.452,0.208
1.452,0.213
1.452,0.233
1.453,0.210
1.453,0.008
1.453,0.017
1.454,-0.087
1.454,-0.053
1.454,0.302
1.454,0.317
1.454,0.418
1.455,0.330
1.455,0.232
1.455,0.227
1.456,0.050
1.456,0.038
1.456,0.108
1.456,0.038
1.456,-0.087
1.457,0.122
1.457,-0.545
1.457,-0.323
1.458,-0.125
1.458,-0.113
1.458,0.092
1.458,0.128
1.458,0.053
1.459,0.025
1.459,0.052
1.459,0.053
1.460,0.072
1.460,0.072
1.460,0.047
1.460,0.045
1.460,0.015
1.461,0.042
1.461,0.030
1.461,0.032
1.462,0.023
1.462,0.033
1.462,-0.033
1.462,-0.042
1.462,-0.022
1.463,-0.020
1.463,0.023
1.463,0.023
1.464,-0.097
1.464,-0.088
1.464,-0.017
1.464,-0.015
1.464,0.007
1.465,0.007
1.465,-0.005
1.465,-0.005
1.466,-0.012
1.466,-0.010
1.466,-0.018
1.466,-0.017
1.466,-0.015
1.467,-0.015
1.467,-0.018
1.467,-0.020
1.468,-0.015
1.468,-0.018
1.468,-0.013
1.468,-0.013
1.468,-0.003
1.469,-0.003
1.469,0.005
1.469,0.008
1.470,0.003
1.470,0.003
1.470,-0.012
1.470,-0.013
1.470,-0.077
1.471,-0.097
1.471,-0.075
1.471,-0.072
1.472,-0.032
1.472,-0.030
1.472,0.000
1.472,0.008
1.472,-0.005
1.473,-0.007
1.473,-0.028
1.473,-0.030
1.474,-0.022
1.474,-0.020
1.474,-0.007
1.474,0.000
1.474,-0.010
1.475,-0.012
1.475,-0.005
1.475,-0.005
1.476,0.012
1.476,0.012
1.476,0.022
1.476,0.023
1.476,0.015
1.477,0.017
1.477,-0.010
1.477,-0.013
1.478,-0.112
1.478,-0.117
1.478,-0.133
1.478,-0.117
1.478,-0.047
1.479,-0.043
1.479,-0.007
1.479,-0.008
1.480,0.018
1.480,0.018
1.480,0.047
1.480,0.033
1.480,-0.002
1.481,0.030
1.481,0.065
1.481,0.067
1.482,0.022
1.482,0.007
1.482,-0.092
1.482,0.132
1.482,-0.212
1.483,-0.208
1.483,-0.043
1.483,-0.038
1.484,0.052
1.484,0.067
1.484,0.047
1.484,0.045
1.484,0.017
1.485,0.018
1.485,0.030
1.485,0.028
1.486,0.018
1.486,0.022
1.486,0.013
1.486,0.017
1.486,0.052
1.487,0.053
1.487,0.087
1.487,0.073
1.488,-0.083
1.488,-0.085
1.488,-0.005
1.488,0.000
1.488,-0.113
1.489,-0.115
1.489,-0.067
1.489,-0.063
1.490,0.042
1.490,0.077
1.490,-0.052
1.490,-0.072
1.490,-0.045
1.491,-0.043
1.491,-0.005
1.491,-0.005
1.492,-0.013
1.492,-0.020
1.492,-0.012
1.492,-0.012
1.492,-0.003
1.493,-0.005
1.493,0.000
1.493,0.000
1.494,-0.003
1.494,-0.002
1.494,0.007
1.494,0.005
1.494,0.000
1.495,0.003
1.495,-0.002
1.495,-0.002
1.496,0.007
1.496,0.005
1.496,0.013
1.496,0.012
1.496,0.018
1.497,0.017
1.497,0.022
1.497,0.022
1.498,0.008
1.498,0.010
1.498,-0.012
1.498,-0.022
1.498,-0.005
1.499,-0.005
1.499,0.025
1.499,0.022
1.500,0.012
1.500,0.040
1.500,0.020
1.500,0.018
1.500,-0.057
1.501,-0.058
1.501,-0.038
1.501,0.100
1.502,-0.035
1.502,-0.007
1.502,-0.005
1.502,0.008
1.502,0.008
1.503,0.003
1.503,0.005
1.503,0.017
1.504,0.015
1.504,0.020
1.504,0.017
1.504,0.022
1.504,0.017
1.505,-0.007
1.505,-0.008
1.505,-0.052
1.506,-0.053
1.506,-0.067
1.506,-0.063
1.506,-0.037
1.506,-0.037
1.507,-0.007
1.507,-0.005
1.507,0.002
1.508,0.000
1.508,0.003
1.508,0.005
1.508,0.002
1.508,0.003
1.509,0.013
1.509,0.013
1.509,0.032
1.510,0.038
1.510,-0.008
1.510,-0.017
1.510,-0.105
1.510,-0.098
1.511,-0.033
1.511,-0.033
1.511,0.003
1.512,0.002
1.512,0.005
1.512,0.002
1.512,-0.003
1.512,-0.003
1.513,-0.008
1.513,-0.005
1.513,-0.010
1.514,-0.008
1.514,-0.015
1.514,-0.010
1.514,-0.013
1.514,-0.013
1.515,-0.007
1.515,-0.008
1.515,-0.002
1.516,-0.003
1.516,0.003
1.516,0.002
1.516,-0.002
1.516,0.000
1.517,0.003
1.517,0.002
1.517,-0.003
1.518,0.000
1.518,-0.003
1.518,-0.002
1.518,-0.007
1.518,-0.003
1.519,-0.008
1.519,-0.005
1.519,-0.012
1.520,-0.005
1.520,-0.010
1.520,-0.008
1.520,-0.003
1.520,-0.003
1.521,-0.010
1.521,-0.003
1.521,-0.008
1.522,-0.008
1.522,-0.003
1.522,-0.008
1.522,-0.003
1.522,-0.002
1.523,-0.010
1.523,-0.005
1.523,-0.012
1.524,-0.005
1.524,-0.010
1.524,-0.010
1.524,-0.005
1.524,-0.007
1.525,-0.013
1.525,-0.012
1.525,-0.008
1.526,-0.013
1.526,-0.010
1.526,-0.012
1.526,-0.017
1.526,-0.013
1.527,-0.018
1.527,-0.015
1.527,-0.022
1.528,-0.018
1.528,-0.028
1.528,-0.023
1.528,-0.028
1.528,-0.025
1.529,-0.015
1.529,-0.020
1.529,-0.010
1.530,-0.010
1.530,0.002
1.530,0.002
1.530,0.015
1.530,0.017
1.531,0.010
1.531,0.013
1.531,0.005
1.532,0.007
1.532,0.045
1.532,0.047
1.532,0.098
1.532,0.100
1.533,0.148
1.533,0.150
1.533,0.168
1.534,0.165
1.534,0.090
1.534,0.088
1.534,-0.007
1.534,-0.012
1.535,0.005
1.535,0.008
1.535,-0.127
1.536,-0.138
1.536,-0.430
1.536,-0.440
1.536,-0.322
1.536,-0.317
1.537,-0.282
1.537,-0.277
1.537,-0.157
1.538,-0.243
1.538,0.018
1.538,0.043
1.538,0.367
1.538,0.397
1.539,0.703
1.539,0.587
1.539,0.478
1.540,0.433
1.540,0.540
1.540,0.590
1.540,-0.127
1.540,0.448
1.541,-0.113
1.541,-0.063
1.541,0.185
1.542,0.045
1.542,0.278
1.542,0.433
1.542,0.167
1.542,0.010
1.543,0.270
1.543,0.285
1.543,0.470
1.544,0.333
1.544,0.072
1.544,0.068
1.544,0.032
1.544,0.028
1.545,-0.002
1.545,0.000
1.545,-0.008
1.546,-0.003
1.546,-0.032
1.546,-0.035
1.546,-0.058
1.546,-0.057
1.547,-0.067
1.547,-0.072
1.547,-0.058
1.548,-0.058
1.548,-0.052
1.548,-0.053
1.548,-0.045
1.548,-0.047
1.549,-0.058
1.549,-0.058
1.549,-0.073
1.550,-0.073
1.550,-0.067
1.550,-0.068
1.550,-0.063
1.550,-0.067
1.551,-0.055
1.551,-0.053
1.551,-0.045
1.552,-0.048
1.552,-0.045
1.552,-0.045
1.552,-0.040
1.552,-0.045
1.553,-0.105
1.553,-0.108
1.553,-0.185
1.554,-0.187
1.554,-0.135
1.554,-0.132
1.554,-0.070
1.554,-0.070
1.555,-0.047
1.555,-0.047
1.555,-0.017
1.556,-0.008
1.556,-0.057
1.556,-0.055
1.556,0.002
1.556,0.003
1.557,0.027
1.557,0.022
1.557,-0.118
1.558,-0.118
1.558,0.113
1.558,0.075
1.558,-0.220
1.558,-0.172
1.559,-0.020
1.559,-0.013
1.559,0.012
1.560,0.013
1.560,-0.005
1.560,-0.003
1.560,-0.012
1.560,-0.005
1.561,0.000
1.561,-0.005
1.561,-0.020
1.562,-0.022
1.562,-0.015
1.562,-0.017
1.562,-0.022
1.562,-0.017
1.563,-0.020
1.563,-0.022
1.563,-0.018
1.563,-0.022
1.564,-0.018
1.564,-0.020
1.564,-0.015
1.565,-0.018
1.565,-0.010
1.565,-0.012
1.565,0.025
1.565,0.033
1.566,-0.093
1.566,-0.092
1.566,-0.050
1.567,-0.048
1.567,-0.015
1.567,-0.013
1.567,-0.007
1.567,-0.010
1.568,-0.005
1.568,-0.008
1.568,-0.015
1.569,-0.017
1.569,-0.012
1.569,-0.012
1.569,-0.015
1.569,-0.015
1.570,-0.012
1.570,-0.015
1.570,-0.010
1.571,-0.012
1.571,-0.015
1.571,-0.015
1.571,-0.012
1.571,-0.015
1.572,-0.008
1.572,-0.008
1.572,-0.013
1.573,-0.015
1.573,-0.007
1.573,-0.008
1.573,-0.012
1.573,-0.005
1.574,-0.012
1.574,-0.012
1.574,-0.007
1.575,-0.010
1.575,-0.005
1.575,-0.008
1.575,-0.005
1.575,-0.008
1.576,0.002
1.576,-0.002
1.576,0.003
1.577,0.007
1.577,0.000
1.577,0.000
1.577,-0.007
1.577,-0.008
1.578,-0.020
1.578,-0.022
1.578,-0.037
1.579,-0.035
1.579,-0.023
1.579,-0.023
1.579,-0.003
1.579,0.000
1.580,0.007
1.580,0.008
1.580,-0.007
1.581,-0.008
1.581,-0.013
1.581,-0.013
1.581,-0.047
1.581,-0.048
1.582,-0.078
1.582,-0.073
1.582,-0.022
1.583,-0.023
1.583,0.015
1.583,0.017
1.583,0.038
1.583,0.035
1.584,0.013
1.584,0.015
1.584,-0.020
1.585,-0.020
1.585,-0.028
1.585,-0.022
1.585,0.007
1.585,0.002
1.586,0.037
1.586,0.037
1.586,0.072
1.587,0.080
1.587,0.065
1.587,0.053
1.587,0.117
1.587,0.363
1.588,-0.242
1.588,-0.277
1.588,-0.143
1.589,-0.137
1.589,0.010
1.589,0.012
1.589,0.038
1.589,0.048
1.590,0.028
1.590,0.027
1.590,-0.005
1.591,-0.003
1.591,0.055
1.591,0.063
1.591,-0.027
1.591,-0.030
1.592,-0.108
1.592,-0.063
1.592,0.037
1.593,-0.008
1.593,-0.048
1.593,-0.028
1.593,0.057
1.593,0.060
1.594,0.102
1.594,0.100
1.594,0.070
1.595,0.065
1.595,-0.010
1.595,-0.015
1.595,-0.062
1.595,-0.045
1.596,0.018
1.596,0.020
1.596,0.047
1.597,0.048
1.597,0.042
1.597,0.042
1.597,0.037
1.597,0.035
1.598,0.028
1.598,0.028
1.598,0.017
1.599,0.018
1.599,0.005
1.599,0.005
1.599,0.002
1.599,0.002
1.600,0.008
1.600,0.007
1.600,0.012
1.601,0.008
1.601,0.017
1.601,0.015
1.601,0.018
1.601,0.018
1.602,0.013
1.602,0.013
1.602,0.018
1.603,0.013
1.603,0.018
1.603,0.020
1.603,0.015
1.603,0.017
1.604,0.025
1.604,0.028
1.604,0.055
1.605,0.057
1.605,0.082
1.605,0.087
1.605,0.077
1.605,0.077
1.606,0.038
1.606,0.035
1.606,-0.018
1.607,-0.022
1.607,-0.070
1.607,-0.070
1.607,-0.045
1.607,-0.043
1.608,-0.157
1.608,-0.167
1.608,-0.233
1.609,-0.203
1.609,-0.065
1.609,-0.060
1.609,0.043
1.609,0.045
1.610,0.080
1.610,0.080
1.610,0.113
1.611,0.113
1.611,0.167
1.611,0.173
1.611,0.053
1.611,-0.017
1.612,0.047
1.612,0.043
1.612,0.247
1.613,0.260
1.613,0.345
1.613,0.332
1.613,0.143
1.613,0.142
1.614,0.205
1.614,0.177
1.614,0.140
1.615,0.133
1.615,-0.018
1.615,-0.062
1.615,-0.015
1.615,-0.013
1.616,0.033
1.616,0.030
1.616,0.013
1.617,0.013
1.617,-0.007
1.617,-0.008
1.617,-0.020
1.617,-0.017
1.618,-0.025
1.618,-0.027
1.618,-0.022
1.619,-0.023
1.619,-0.028
1.619,-0.025
1.619,-0.028
1.619,-0.027
1.620,-0.030
1.620,-0.027
1.620,-0.030
1.621,-0.028
1.621,-0.033
1.621,-0.030
1.621,-0.027
1.621,-0.028
1.622,-0.035
1.622,-0.030
1.622,-0.033
1.623,-0.033
1.623,-0.027
1.623,-0.028
1.623,-0.032
1.623,-0.030
1.624,-0.025
1.624,-0.027
1.624,-0.023
1.625,-0.023
1.625,-0.022
1.625,-0.023
1.625,-0.020
1.625,-0.022
1.626,-0.017
1.626,-0.018
1.626,-0.022
1.627,-0.020
1.627,-0.023
1.627,-0.020
1.627,-0.023
1.627,-0.020
1.628,-0.023
1.628,-0.018
1.628,-0.023
1.629,-0.020
1.629,-0.023
1.629,-0.020
1.629,-0.025
1.629,-0.022
1.630,-0.017
1.630,-0.022
1.630,-0.017
1.631,-0.020
1.631,-0.017
1.631,-0.018
1.631,-0.015
1.631,-0.020
1.632,-0.013
1.632,-0.020
1.632,-0.015
1.633,-0.015
1.633,-0.020
1.633,-0.018
1.633,-0.012
1.633,-0.015
1.634,-0.012
1.634,-0.012
1.634,-0.015
1.635,-0.012
1.635,-0.017
1.635,-0.012
1.635,-0.015
1.635,-0.012
1.636,-0.017
1.636,-0.013
1.636,-0.015
1.637,-0.012
1.637,-0.015
1.637,-0.013
1.637,-0.010
1.637,-0.013
1.638,-0.008
1.638,-0.013
1.638,-0.008
1.639,-0.012
1.639,-0.008
1.639,-0.008
1.639,-0.012
1.639,-0.007
1.640,-0.012
1.640,-0.008
1.640,-0.013
1.641,-0.010
1.641,-0.015
1.641,-0.015
1.641,-0.003
1.641,-0.003
1.642,0.013
1.642,0.013
1.642,0.028
1.643,0.027
1.643,0.032
1.643,0.030
1.643,-0.010
1.643,-0.013
1.644,-0.102
1.644,-0.105
1.644,-0.068
1.645,-0.067
1.645,0.013
1.645,0.017
1.645,0.112
1.645,0.118
1.646,0.177
1.646,0.170
1.646,-0.223
1.647,-0.247
1.647,-0.407
1.647,-0.360
1.647,-0.088
1.647,-0.078
1.648,0.068
1.648,0.053
1.648,0.213
1.649,0.287
1.649,-0.085
1.649,-0.083
1.649,-0.113
1.649,-0.095
1.650,-0.045
1.650,-0.038
1.650,0.043
1.651,0.048
1.651,0.162
1.651,0.170
1.651,0.145
1.651,0.143
1.652,0.062
1.652,0.107
1.652,-0.057
1.653,-0.058
1.653,0.352
1.653,0.357
1.653,-0.280
1.653,-0.050
1.654,0.198
1.654,0.200
1.654,0.232
1.655,0.230
1.655,0.067
1.655,0.062
1.655,0.010
1.655,0.010
1.656,0.077
1.656,0.077
1.656,-0.097
1.657,-0.120
1.657,-0.078
1.657,-0.072
1.657,0.028
1.657,0.057
1.658,0.023
1.658,0.017
1.658,-0.037
1.659,-0.033
1.659,0.265
1.659,0.282
1.659,-0.227
1.659,-0.022
1.660,0.057
1.660,0.057
1.660,0.067
1.661,0.058
1.661,0.028
1.661,0.028
1.661,0.008
1.661,0.008
1.662,-0.003
1.662,-0.002
1.662,-0.012
1.663,-0.010
1.663,-0.017
1.663,-0.013
1.663,-0.018
1.663,-0.020
1.664,-0.012
1.664,-0.017
1.664,-0.010
1.665,-0.013
1.665,-0.008
1.665,-0.010
1.665,-0.023
1.665,-0.027
1.666,-0.038
1.666,-0.033
1.666,-0.013
1.667,-0.013
1.667,0.002
1.667,0.002
1.667,0.020
1.667,0.025
1.668,0.003
1.668,0.003
1.668,-0.075
1.669,-0.075
1.669,-0.047
1.669,-0.047
1.669,-0.018
1.669,-0.018
1.670,-0.002
1.670,0.000
1.670,-0.013
1.671,-0.013
1.671,-0.007
1.671,-0.010
1.671,-0.013
1.671,-0.013
1.672,-0.017
1.672,-0.018
1.672,-0.012
1.673,-0.015
1.673,-0.010
1.673,-0.013
1.673,-0.010
1.673,-0.012
1.674,-0.022
1.674,-0.023
1.674,-0.015
1.675,-0.015
1.675,-0.020
1.675,-0.017
1.675,-0.013
1.675,-0.018
1.676,-0.015
1.676,-0.018
1.676,-0.013
1.677,-0.013
1.677,-0.018
1.677,-0.013
1.677,-0.018
1.677,-0.017
1.678,-0.013
1.678,-0.018
1.678,-0.013
1.679,-0.018
1.679,-0.012
1.679,-0.015
1.679,-0.010
1.679,-0.013
1.680,-0.008
1.680,-0.008
1.680,-0.013
1.681,-0.013
1.681,-0.008
1.681,-0.008
1.681,-0.013
1.681,-0.008
1.682,-0.015
1.682,-0.012
1.682,-0.017
1.683,-0.013
1.683,-0.020
1.683,-0.017
1.683,-0.022
1.683,-0.018
1.684,-0.025
1.684,-0.025
1.684,-0.022
1.685,-0.022
1.685,-0.018
1.685,-0.020
1.685,-0.012
1.685,-0.015
1.686,-0.005
1.686,-0.005
1.686,0.007
1.687,0.007
1.687,0.017
1.687,0.017
1.687,0.032
1.688,0.033
1.688,0.042
1.688,0.040
1.688,0.005
1.688,0.003
1.689,-0.022
1.689,-0.023
1.689,-0.002
1.690,0.000
1.690,0.025
1.690,0.027
1.690,0.000
1.690,-0.015
1.691,0.020
1.691,0.022
1.691,0.077
1.692,0.060
1.692,0.012
1.692,0.005
1.692,-0.117
1.692,-0.083
1.693,-0.117
1.693,-0.100
1.693,0.210
1.694,0.245
1.694,0.135
1.694,0.103
1.694,0.195
1.694,0.200
1.695,0.280
1.695,0.270
1.695,0.068
1.696,0.058
1.696,-0.172
1.696,-0.175
1.696,-0.108
1.696,-0.110
1.697,-0.263
1.697,-0.272
1.697,-0.185
1.698,-0.178
1.698,-0.030
1.698,-0.025
1.698,0.037
1.698,0.040
1.699,0.033
1.699,0.037
1.699,0.042
1.700,0.043
1.700,0.038
1.700,0.038
1.700,-0.007
1.700,-0.003
1.701,0.028
1.701,0.020
1.701,0.012
1.702,0.012
1.702,0.023
1.702,0.015
1.702,-0.053
1.702,-0.048
1.703,-0.005
1.703,0.010
1.703,-0.103
1.704,-0.113
1.704,-0.062
1.704,-0.058
1.704,-0.003
1.704,0.002
1.705,-0.005
1.705,-0.003
1.705,-0.010
1.706,-0.010
1.706,-0.017
1.706,-0.018
1.706,-0.013
1.706,-0.017
1.707,-0.010
1.707,-0.013
1.707,-0.010
1.708,-0.012
1.708,-0.005
1.708,-0.005
1.708,0.003
1.708,0.000
1.709,-0.008
1.709,-0.007
1.709,-0.015
1.710,-0.013
1.710,-0.018
1.710,-0.023
1.710,-0.018
1.710,-0.022
1.711,-0.018
1.711,-0.022
1.711,-0.018
1.712,-0.020
1.712,-0.017
1.712,-0.012
1.712,-0.018
1.712,-0.013
1.713,-0.008
1.713,-0.005
1.713,0.007
1.714,0.007
1.714,0.045
1.714,0.047
1.714,0.113
1.714,0.123
1.715,0.080
1.715,0.023
1.715,0.255
1.716,0.277
1.716,-0.013
1.716,-0.010
1.716,0.318
1.716,0.402
1.717,0.262
1.717,0.253
1.717,0.080
1.718,0.082
1.718,-0.007
1.718,-0.008
1.718,0.005
1.718,0.007
1.719,-0.003
1.719,-0.003
1.719,-0.035
1.720,-0.037
1.720,-0.057
1.720,-0.058
1.720,-0.072
1.720,-0.075
1.721,-0.062
1.721,-0.067
1.721,-0.058
1.722,-0.060
1.722,-0.053
1.722,-0.053
1.722,-0.070
1.722,-0.073
1.723,-0.067
1.723,-0.068
1.723,-0.057
1.724,-0.060
1.724,-0.055
1.724,-0.053
1.724,-0.057
1.724,-0.055
1.725,-0.065
1.725,-0.065
1.725,-0.045
1.726,-0.045
1.726,-0.027
1.726,-0.025
1.726,-0.018
1.726,-0.018
1.727,-0.035
1.727,-0.037
1.727,-0.108
1.728,-0.113
1.728,-0.170
1.728,-0.167
1.728,-0.103
1.728,-0.102
1.729,-0.048
1.729,-0.045
1.729,-0.030
1.730,-0.028
1.730,0.003
1.730,0.007
1.730,-0.042
1.730,-0.033
1.731,0.022
1.731,0.025
1.731,0.040
1.732,0.038
1.732,-0.102
1.732,-0.100
1.732,0.132
1.732,-0.115
1.733,-0.205
1.733,-0.127
1.733,0.010
1.734,0.013
1.734,0.023
1.734,0.025
1.734,0.005
1.734,0.000
1.735,0.010
1.735,0.007
1.735,0.010
1.736,0.007
1.736,0.000
1.736,0.000
1.736,-0.005
1.736,-0.007
1.737,-0.003
1.737,-0.008
1.737,-0.002
1.738,-0.002
1.738,-0.008
1.738,-0.003
1.738,-0.008
1.738,-0.008
1.739,-0.007
1.739,-0.007
1.739,0.003
1.740,0.003
1.740,0.047
1.740,0.018
1.740,-0.082
1.740,-0.065
1.741,-0.025
1.741,-0.023
1.741,-0.005
1.742,-0.002
1.742,-0.007
1.742,-0.003
1.742,-0.012
1.742,-0.015
1.743,-0.008
1.743,-0.013
1.743,-0.010
1.744,-0.010
1.744,-0.015
1.744,-0.013
1.744,-0.005
1.744,-0.007
1.745,-0.002
1.745,-0.003
1.745,0.000
1.746,0.000
1.746,-0.005
1.746,-0.003
1.746,-0.010
1.746,-0.008
1.747,-0.012
1.747,-0.012
1.747,-0.008
1.748,-0.010
1.748,-0.015
1.748,-0.012
1.748,-0.017
1.748,-0.013
1.749,-0.017
1.749,-0.018
1.749,-0.012
1.750,-0.015
1.750,-0.010
1.750,-0.010
1.750,-0.005
1.750,-0.005
1.751,0.000
1.751,-0.002
1.751,0.003
1.752,0.100
1.752,0.003
1.752,0.000
1.752,0.002
1.752,0.008
1.753,0.005
1.753,0.000
1.753,0.002
1.754,0.007
1.754,0.007
1.754,0.015
1.754,0.017
1.754,0.028
1.755,0.027
1.755,0.038
1.755,0.037
1.756,0.045
1.756,0.045
1.756,0.035
1.756,0.033
1.756,0.042
1.757,0.042
1.757,0.098
1.757,0.100
1.758,0.128
1.758,0.107
1.758,-0.230
1.758,-0.247
1.758,-0.402
1.759,-0.362
1.759,-0.105
1.759,-0.095
1.760,0.115
1.760,0.147
1.760,0.087
1.760,0.065
1.760,0.085
1.761,0.093
1.761,-0.055
1.761,-0.058
1.762,-0.003
1.762,0.002
1.762,0.048
1.762,0.050
1.762,0.058
1.763,0.055
1.763,0.050
1.763,0.057
1.764,0.023
1.764,0.018
1.764,-0.032
1.764,-0.028
1.764,-0.012
1.765,-0.013
1.765,-0.018
1.765,-0.015
1.766,-0.002
1.766,0.000
1.766,0.008
1.766,0.007
1.766,0.013
1.767,0.012
1.767,0.005
1.767,0.005
1.768,0.032
1.768,0.032
1.768,0.052
1.768,0.053
1.768,0.048
1.769,0.050
1.769,0.035
1.769,0.033
1.770,0.040
1.770,0.038
1.770,-0.015
1.770,-0.023
1.770,-0.120
1.771,-0.075
1.771,-0.023
1.771,-0.022
1.772,-0.048
1.772,-0.050
1.772,-0.062
1.772,-0.055
1.772,-0.070
1.773,-0.072
1.773,-0.093
1.773,-0.093
1.774,-0.030
1.774,-0.113
1.774,-0.282
1.774,0.118
1.774,-0.435
1.775,-0.175
1.775,-0.055
1.775,-0.045
1.776,0.180
1.776,0.443
1.776,-0.095
1.776,-0.057
1.776,0.193
1.777,0.310
1.777,0.080
1.777,0.108
1.778,0.405
1.778,0.392
1.778,0.303
1.778,0.297
1.778,0.163
1.779,0.158
1.779,0.088
1.779,0.080
1.780,0.007
1.780,0.015
1.780,0.057
1.780,0.063
1.780,-0.062
1.781,-0.068
1.781,-0.013
1.781,-0.010
1.782,0.032
1.782,0.035
1.782,0.027
1.782,0.028
1.782,0.022
1.783,0.025
1.783,0.017
1.783,0.018
1.784,0.005
1.784,0.020
1.784,0.033
1.784,0.023
1.784,-0.010
1.785,-0.010
1.785,-0.030
1.785,-0.030
1.786,0.015
1.786,0.018
1.786,0.075
1.786,0.100
1.786,-0.055
1.787,-0.012
1.787,0.060
1.787,0.068
1.788,0.287
1.788,0.283
1.788,0.178
1.788,0.163
1.788,0.193
1.789,0.220
1.789,0.138
1.789,0.145
1.790,0.050
1.790,0.043
1.790,-0.135
1.790,-0.122
1.790,-0.053
1.791,-0.050
1.791,0.003
1.791,0.000
1.792,-0.015
1.792,-0.015
1.792,-0.028
1.792,-0.030
1.792,-0.025
1.793,-0.028
1.793,-0.023
1.793,-0.023
1.794,-0.018
1.794,-0.018
1.794,-0.028
1.794,-0.030
1.794,-0.055
1.795,-0.053
1.795,-0.065
1.795,-0.062
1.796,-0.028
1.796,-0.027
1.796,0.027
1.796,0.027
1.796,-0.115
1.797,-0.125
1.797,-0.042
1.797,-0.017
1.798,-0.105
1.798,-0.120
1.798,-0.103
1.798,-0.103
1.798,-0.077
1.799,-0.077
1.799,-0.045
1.799,-0.042
1.800,-0.070
1.800,-0.058
1.800,-0.015
1.800,-0.012
1.800,-0.028
1.801,-0.030
1.801,-0.047
1.801,-0.047
1.802,-0.030
1.802,-0.032
1.802,-0.017
1.802,-0.008
1.802,-0.018
1.803,-0.018
1.803,-0.025
1.803,-0.023
1.804,-0.020
1.804,-0.020
1.804,-0.023
1.804,-0.025
1.804,-0.022
1.805,-0.025
1.805,-0.022
1.805,-0.022
1.806,-0.025
1.806,-0.022
1.806,-0.020
1.806,-0.020
1.806,-0.025
1.807,-0.023
1.807,-0.017
1.807,-0.018
1.808,-0.022
1.808,-0.022
1.808,-0.017
1.808,-0.020
1.808,-0.015
1.809,-0.017
1.809,-0.013
1.809,-0.012
1.810,-0.017
1.810,-0.015
1.810,-0.008
1.810,-0.008
1.810,0.003
1.811,0.003
1.811,0.015
1.811,0.018
1.812,0.012
1.812,0.010
1.812,-0.017
1.812,-0.018
1.812,-0.112
1.813,-0.115
1.813,-0.148
1.813,-0.137
1.813,-0.058
1.814,-0.055
1.814,-0.005
1.814,-0.005
1.815,0.007
1.815,0.007
1.815,0.032
1.815,0.027
1.815,-0.017
1.816,0.005
1.816,0.057
1.816,0.065
1.817,0.042
1.817,0.048
1.817,-0.113
1.817,0.123
1.817,-0.233
1.818,-0.240
1.818,-0.125
1.818,-0.115
1.819,-0.005
1.819,-0.003
1.819,0.023
1.819,0.023
1.819,0.037
1.820,0.037
1.820,0.062
1.820,0.067
1.821,0.060
1.821,0.058
1.821,0.040
1.821,0.038
1.821,0.022
1.822,0.023
1.822,0.015
1.822,0.017
1.823,0.037
1.823,0.040
1.823,0.088
1.823,0.097
1.823,0.017
1.824,0.012
1.824,-0.160
1.824,-0.185
1.825,-0.108
1.825,-0.033
1.825,-0.118
1.825,-0.127
1.825,-0.053
1.826,-0.050
1.826,-0.005
1.826,-0.002
1.827,0.037
1.827,0.037
1.827,0.135
1.827,0.147
1.827,-0.025
1.828,-0.028
1.828,-0.095
1.828,-0.092
1.829,0.005
1.829,0.018
1.829,0.007
1.829,-0.010
1.829,0.012
1.830,0.010
1.830,0.025
1.830,0.022
1.831,0.027
1.831,0.023
1.831,0.018
1.831,0.018
1.831,0.012
1.832,0.013
1.832,0.007
1.832,0.008
1.833,0.002
1.833,0.000
1.833,0.005
1.833,0.005
1.833,-0.002
1.834,-0.003
1.834,0.000
1.834,-0.003
1.835,0.002
1.835,0.000
1.835,-0.005
1.835,0.000
1.835,-0.005
1.836,-0.005
1.836,-0.003
1.836,-0.007
1.837,-0.003
1.837,-0.003
1.837,-0.008
1.837,-0.005
1.837,-0.010
1.838,-0.008
1.838,-0.005
1.838,-0.010
1.839,-0.005
1.839,-0.005
1.839,-0.010
1.839,-0.012
1.839,-0.007
1.840,-0.010
1.840,-0.007
1.840,-0.007
1.841,-0.012
1.841,-0.007
1.841,-0.012
1.841,-0.007
1.841,-0.012
1.842,-0.007
1.842,-0.010
1.842,-0.007
1.843,-0.012
1.843,-0.008
1.843,-0.012
1.843,-0.008
1.843,-0.013
1.844,-0.010
1.844,-0.013
1.844,-0.008
1.845,-0.013
1.845,-0.013
1.845,-0.007
1.845,-0.007
1.845,-0.012
1.846,-0.008
1.846,-0.013
1.846,-0.012
1.847,-0.010
1.847,-0.012
1.847,-0.008
1.847,-0.007
1.847,-0.012
1.848,-0.007
1.848,-0.010
1.848,-0.008
1.849,-0.010
1.849,-0.012
1.849,-0.007
1.849,-0.012
1.849,-0.007
1.850,-0.007
1.850,-0.010
1.850,-0.008
1.851,-0.005
1.851,-0.003
1.851,-0.010
1.851,-0.005
1.851,-0.012
1.852,-0.010
1.852,-0.007
1.852,-0.008
1.853,-0.005
1.853,-0.005
1.853,-0.010
1.853,-0.007
1.853,-0.002
1.854,-0.003
1.854,0.005
1.854,0.005
1.855,0.018
1.855,0.020
1.855,0.032
1.855,0.028
1.855,0.033
1.856,0.030
1.856,0.022
1.856,0.022
1.857,0.038
1.857,0.042
1.857,0.088
1.857,0.090
1.857,-0.047
1.858,-0.060
1.858,-0.400
1.858,-0.418
1.859,-0.268
1.859,-0.257
1.859,-0.012
1.859,-0.003
1.859,0.105
1.860,0.098
1.860,0.020
1.860,0.028
1.861,0.088
1.861,0.077
1.861,-0.020
1.861,0.007
1.861,0.112
1.862,0.128
1.862,0.112
1.862,0.108
1.863,0.018
1.863,0.017
1.863,-0.055
1.863,-0.058
1.863,-0.120
1.864,-0.125
1.864,-0.093
1.864,-0.107
1.865,-0.198
1.865,-0.175
1.865,-0.100
1.865,-0.100
1.865,-0.148
1.866,-0.108
1.866,-0.050
1.866,-0.048
1.867,0.022
1.867,0.027
1.867,0.132
1.867,0.148
1.867,0.125
1.868,0.120
1.868,0.030
1.868,0.043
1.869,0.207
1.869,0.048
1.869,0.360
1.869,0.460
1.869,-0.278
1.870,-0.042
1.870,0.088
1.870,0.105
1.871,0.417
1.871,0.433
1.871,0.100
1.871,0.088
1.871,0.205
1.872,0.210
1.872,0.118
1.872,0.115
1.873,0.070
1.873,0.068
1.873,-0.040
1.873,-0.030
1.873,0.018
1.874,0.020
1.874,0.037
1.874,0.032
1.875,0.007
1.875,0.008
1.875,0.038
1.875,0.040
1.875,0.142
1.876,-0.087
1.876,0.233
1.876,0.248
1.877,0.295
1.877,0.245
1.877,0.020
1.877,0.013
1.877,-0.028
1.878,-0.023
1.878,-0.008
1.878,-0.008
1.879,-0.018
1.879,-0.018
1.879,-0.028
1.879,-0.030
1.879,-0.037
1.880,-0.037
1.880,-0.033
1.880,-0.033
1.881,-0.040
1.881,-0.037
1.881,-0.042
1.881,-0.038
1.881,-0.042
1.882,-0.038
1.882,-0.042
1.882,-0.037
1.883,-0.042
1.883,-0.040
1.883,-0.045
1.883,-0.042
1.883,-0.015
1.884,-0.013
1.884,0.005
1.884,0.007
1.885,0.015
1.885,0.010
1.885,-0.020
1.885,-0.022
1.885,-0.110
1.886,-0.112
1.886,-0.163
1.886,-0.162
1.887,-0.113
1.887,-0.110
1.887,-0.055
1.887,-0.053
1.887,-0.035
1.888,-0.048
1.888,-0.103
1.888,-0.107
1.889,-0.063
1.889,-0.042
1.889,-0.063
1.889,-0.065
1.889,0.003
1.890,0.005
1.890,-0.098
1.890,-0.100
1.891,-0.067
1.891,-0.075
1.891,-0.170
1.891,-0.168
1.891,0.182
1.892,0.048
1.892,-0.290
1.892,0.003
1.893,0.072
1.893,0.068
1.893,0.013
1.893,0.020
1.893,0.003
1.894,0.002
1.894,-0.015
1.894,-0.015
1.895,-0.018
1.895,-0.018
1.895,-0.015
1.895,-0.013
1.895,-0.018
1.896,-0.015
1.896,-0.020
1.896,-0.017
1.897,-0.020
1.897,-0.022
1.897,-0.015
1.897,-0.013
1.897,-0.018
1.898,-0.013
1.898,-0.018
1.898,-0.017
1.899,-0.012
1.899,-0.015
1.899,-0.013
1.899,-0.018
1.899,-0.013
1.900,-0.015
1.900,-0.018
1.900,-0.013
1.901,-0.018
1.901,-0.015
1.901,0.000
1.901,-0.002
1.901,0.010
1.902,0.008
1.902,0.018
1.902,0.015
1.903,0.002
1.903,0.002
1.903,-0.067
1.903,-0.072
1.903,-0.135
1.904,-0.135
1.904,-0.070
1.904,-0.067
1.905,0.000
1.905,0.002
1.905,0.033
1.905,0.033
1.905,0.078
1.906,0.082
1.906,0.025
1.906,0.028
1.907,0.045
1.907,0.035
1.907,-0.023
1.907,-0.013
1.907,-0.128
1.908,-0.125
1.908,0.133
1.908,-0.043
1.909,-0.210
1.909,-0.120
1.909,0.002
1.909,0.005
1.909,0.017
1.910,0.017
1.910,0.010
1.910,0.010
1.911,0.033
1.911,0.033
1.911,0.027
1.911,0.025
1.911,0.018
1.912,0.020
1.912,0.017
1.912,0.018
1.913,0.012
1.913,0.013
1.913,0.010
1.913,0.012
1.913,0.007
1.914,0.005
1.914,0.012
1.914,0.010
1.915,0.008
1.915,0.008
1.915,0.020
1.915,0.055
1.915,-0.027
1.916,-0.038
1.916,-0.073
1.916,-0.047
1.917,-0.007
1.917,-0.005
1.917,0.010
1.917,0.012
1.917,0.007
1.918,0.010
1.918,0.003
1.918,0.003
1.919,0.002
1.919,0.003
1.919,-0.005
1.919,0.000
1.919,-0.007
1.920,-0.007
1.920,-0.005
1.920,-0.007
1.921,-0.010
1.921,-0.012
1.921,-0.008
1.921,-0.012
1.921,-0.007
1.922,-0.010
1.922,-0.005
1.922,-0.007
1.923,-0.013
1.923,-0.015
1.923,-0.010
1.923,-0.007
1.923,-0.013
1.924,-0.012
1.924,-0.007
1.924,-0.010
1.925,-0.005
1.925,-0.012
1.925,-0.007
1.925,-0.010
1.925,-0.007
1.926,-0.012
1.926,-0.007
1.926,-0.012
1.927,-0.007
1.927,-0.007
1.927,-0.012
1.927,-0.013
1.927,-0.007
1.928,-0.008
1.928,-0.012
1.928,-0.010
1.929,-0.007
1.929,-0.007
1.929,-0.012
1.929,-0.007
1.929,-0.012
1.930,-0.012
1.930,-0.005
1.930,-0.007
1.931,-0.010
1.931,-0.007
1.931,-0.010
1.931,-0.010
1.931,-0.005
1.932,-0.010
1.932,-0.007
1.932,-0.012
1.933,-0.005
1.933,-0.008
1.933,0.007
1.933,0.008
1.933,0.038
1.934,0.038
1.934,0.060
1.934,0.060
1.935,0.050
1.935,0.047
1.935,0.000
1.935,-0.002
1.935,-0.047
1.936,-0.048
1.936,-0.077
1.936,-0.070
1.937,-0.052
1.937,-0.053
1.937,-0.218
1.937,-0.252
1.938,-0.195
1.938,-0.190
1.938,-0.055
1.938,-0.050
1.938,0.030
1.939,0.032
1.939,0.047
1.939,0.047
1.940,0.043
1.940,0.047
1.940,0.053
1.940,0.050
1.940,0.015
1.941,0.005
1.941,0.035
1.941,0.035
1.942,0.032
1.942,0.030
1.942,0.043
1.942,0.042
1.942,-0.033
1.943,-0.028
1.943,0.012
1.943,0.037
1.944,-0.023
1.944,-0.035
1.944,-0.090
1.944,-0.057
1.944,0.007
1.945,0.008
1.945,0.020
1.945,0.018
1.946,0.013
1.946,0.013
1.946,0.005
1.946,0.002
1.946,0.008
1.947,0.007
1.947,0.002
1.947,0.007
1.948,0.002
1.948,0.005
1.948,0.008
1.948,0.007
1.948,0.003
1.949,0.005
1.949,0.008
1.949,0.003
1.950,0.010
1.950,0.007
1.950,0.017
1.950,0.015
1.950,0.023
1.951,0.022
1.951,0.030
1.951,0.032
1.952,0.027
1.952,0.027
1.952,0.017
1.952,0.012
1.952,0.025
1.953,0.027
1.953,0.087
1.953,0.088
1.954,0.110
1.954,0.080
1.954,-0.268
1.954,-0.285
1.954,-0.400
1.955,-0.338
1.955,-0.057
1.955,-0.045
1.956,0.158
1.956,0.182
1.956,0.097
1.956,0.092
1.956,0.070
1.957,0.088
1.957,-0.073
1.957,-0.077
1.958,-0.002
1.958,0.003
1.958,0.105
1.958,0.108
1.958,0.137
1.959,0.132
1.959,0.078
1.959,0.073
1.960,-0.163
1.960,-0.195
1.960,-0.295
1.960,-0.202
1.960,0.112
1.961,0.128
1.961,0.320
1.961,0.303
1.962,0.160
1.962,0.180
1.962,0.263
1.962,0.187
1.962,0.253
1.963,0.267
1.963,0.052
1.963,0.035
1.964,-0.142
1.964,-0.143
1.964,-0.030
1.964,-0.025
1.964,-0.010
1.965,-0.027
1.965,-0.048
1.965,-0.027
1.966,0.005
1.966,0.008
1.966,0.073
1.966,0.075
1.966,-0.037
1.967,-0.037
1.967,0.002
1.967,-0.013
1.968,-0.038
1.968,-0.045
1.968,-0.100
1.968,-0.063
1.968,0.028
1.969,0.032
1.969,-0.005
1.969,-0.037
1.970,0.030
1.970,0.063
1.970,-0.117
1.970,0.280
1.970,-0.322
1.971,-0.293
1.971,-0.007
1.971,-0.063
1.972,0.028
1.972,0.032
1.972,0.073
1.972,0.058
1.972,-0.032
1.973,-0.025
1.973,0.015
1.973,0.017
1.974,0.023
1.974,0.020
1.974,0.008
1.974,0.008
1.974,-0.007
1.975,-0.008
1.975,-0.018
1.975,-0.020
1.976,-0.012
1.976,-0.017
1.976,-0.010
1.976,-0.012
1.976,-0.008
1.977,-0.012
1.977,-0.007
1.977,-0.008
1.978,-0.013
1.978,-0.007
1.978,-0.013
1.978,-0.008
1.978,-0.005
1.979,-0.008
1.979,0.002
1.979,0.002
1.980,0.008
1.980,0.007
1.980,-0.003
1.980,0.002
1.980,0.040
1.981,0.043
1.981,0.137
1.981,-0.095
1.982,0.248
1.982,0.258
1.982,0.220
1.982,0.215
1.982,0.103
1.983,0.098
1.983,0.020
1.983,0.018
1.984,-0.012
1.984,-0.013
1.984,-0.025
1.984,-0.027
1.984,-0.038
1.985,-0.040
1.985,-0.033
1.985,-0.037
1.986,-0.032
1.986,-0.035
1.986,-0.030
1.986,-0.030
1.986,-0.035
1.987,-0.027
1.987,-0.032
1.987,-0.032
1.988,-0.028
1.988,-0.027
1.988,-0.032
1.988,-0.032
1.988,-0.027
1.989,-0.030
1.989,-0.025
1.989,-0.025
1.990,-0.028
1.990,-0.023
1.990,-0.028
1.990,-0.027
1.990,-0.023
1.991,-0.025
1.991,-0.022
1.991,-0.025
1.992,-0.020
1.992,-0.025
1.992,-0.018
1.992,-0.023
1.992,-0.018
1.993,-0.022
1.993,-0.018
1.993,-0.023
1.994,-0.018
1.994,-0.022
1.994,-0.018
1.994,-0.020
1.994,-0.017
1.995,-0.018
1.995,-0.005
1.995,-0.007
1.996,0.005
1.996,0.003
1.996,0.022
1.996,0.020
1.996,0.043
1.997,0.042
1.997,0.000
1.997,-0.003
1.998,-0.078
1.998,-0.080
1.998,-0.062
1.998,-0.060
1.998,-0.090
1.999,-0.107
1.999,-0.090
1.999,-0.090
2.000,0.003
2.000,0.022
2.000,-0.007
2.000,-0.005
2.001,0.022
2.001,0.015
2.001,-0.003
2.001,0.032
2.002,-0.043
2.002,0.100
2.002,-0.033
2.002,0.178
2.002,0.105
2.003,-0.252
2.003,-0.218
2.003,0.083
2.003,0.107
2.004,-0.077
2.004,-0.078
2.004,-0.115
2.005,0.247
2.005,-0.200
2.005,-0.223
2.005,0.055
2.006,0.053
2.006,0.090
2.006,0.098
2.006,0.078
2.006,0.075
2.007,0.017
2.007,0.010
2.007,0.018
2.007,0.015
2.008,0.023
2.008,0.030
2.008,0.017
2.009,0.017
2.009,0.008
2.009,0.010
2.009,0.048
2.010,0.050
2.010,0.123
2.010,0.130
2.010,0.008
2.010,0.008
2.011,0.023
2.011,0.027
2.011,0.002
2.011,0.000
2.012,-0.048
2.012,-0.048
2.012,-0.058
2.013,-0.047
2.013,-0.107
2.013,-0.115
2.013,-0.242
2.014,-0.235
2.014,-0.122
2.014,-0.115
2.014,-0.007
2.014,-0.002
2.015,0.035
2.015,0.033
2.015,0.045
2.015,0.042
2.016,0.053
2.016,0.057
2.016,0.045
2.017,0.043
2.017,0.013
2.017,0.025
2.017,0.048
2.018,0.047
2.018,0.040
2.018,0.055
2.018,0.017
2.018,0.010
2.019,-0.018
2.019,0.002
2.019,0.050
2.019,0.057
2.020,-0.067
2.020,-0.065
2.020,0.000
2.021,0.003
2.021,0.038
2.021,0.038
2.021,0.025
2.022,0.027
2.022,0.017
2.022,0.020
2.022,0.012
2.022,0.012
2.023,0.007
2.023,0.010
2.023,0.007
2.023,0.008
2.024,0.003
2.024,0.002
2.024,0.007
2.025,0.007
2.025,0.000
2.025,0.003
2.025,0.000
2.026,0.003
2.026,-0.002
2.026,0.005
2.026,0.000
2.026,0.002
2.027,-0.003
2.027,0.000
2.027,-0.003
2.027,0.000
2.028,-0.005
2.028,-0.005
2.028,0.000
2.029,-0.005
2.029,0.000
2.029,-0.005
2.029,0.000
2.030,-0.007
2.030,-0.002
2.030,-0.002
2.030,-0.005
2.030,-0.002
2.031,-0.007
2.031,-0.003
2.031,-0.007
2.031,-0.005
2.032,-0.002
2.032,-0.002
2.032,-0.008
2.033,-0.007
2.033,-0.002
2.033,-0.005
2.033,-0.002
2.034,-0.007
2.034,-0.002
2.034,0.000
2.034,-0.008
2.034,-0.007
2.035,-0.003
2.035,-0.003
2.035,-0.008
2.035,-0.008
2.036,-0.003
2.036,-0.008
2.036,-0.003
2.037,-0.008
2.037,-0.003
2.037,-0.002
2.037,-0.005
2.038,-0.007
2.038,-0.003
2.038,-0.007
2.038,-0.003
2.038,-0.003
2.039,-0.007
2.039,-0.007
2.039,-0.002
2.039,-0.002
2.040,-0.007
2.040,-0.002
2.040,-0.007
2.041,-0.005
2.041,-0.008
2.041,-0.005
2.041,0.000
2.042,0.000
2.042,0.012
2.042,0.013
2.042,0.023
2.042,0.022
2.043,0.033
2.043,0.035
2.043,0.047
2.043,0.042
2.044,0.045
2.044,0.040
2.044,0.067
2.045,0.068
2.045,0.123
2.045,0.130
2.045,0.027
2.046,0.013
2.046,-0.383
2.046,-0.430
2.046,-0.332
2.046,-0.322
2.047,-0.060
2.047,-0.050
2.047,0.112
2.047,0.110
2.048,0.025
2.048,0.023
2.048,0.042
2.049,0.035
2.049,-0.095
2.049,-0.080
2.049,0.017
2.050,0.018
2.050,0.060
2.050,0.067
2.050,0.050
2.050,0.045
2.051,0.073
2.051,0.083
2.051,0.068
2.051,0.068
2.052,0.128
2.052,0.153
2.052,-0.003
2.053,0.005
2.053,0.068
2.053,0.030
2.053,0.243
2.054,0.287
2.054,0.228
2.054,0.218
2.054,0.163
2.054,0.213
2.055,0.120
2.055,0.123
2.055,0.108
2.055,0.110
2.056,-0.010
2.056,-0.013
2.056,-0.027
2.057,-0.022
2.057,0.008
2.057,0.007
2.057,-0.003
2.058,-0.005
2.058,-0.013
2.058,-0.012
2.058,-0.023
2.058,-0.023
2.059,-0.032
2.059,-0.032
2.059,-0.028
2.059,-0.033
2.060,-0.028
2.060,-0.030
2.060,-0.033
2.061,-0.032
2.061,-0.028
2.061,-0.033
2.061,-0.030
2.062,-0.032
2.062,-0.025
2.062,-0.027
2.062,-0.022
2.062,-0.025
2.063,-0.017
2.063,-0.017
2.063,-0.023
2.063,-0.023
2.064,-0.050
2.064,-0.052
2.064,-0.082
2.064,-0.085
2.065,-0.062
2.065,-0.060
2.065,-0.015
2.066,-0.015
2.066,-0.002
2.066,-0.005
2.066,-0.032
2.067,-0.033
2.067,-0.060
2.067,-0.065
2.067,-0.047
2.067,-0.043
2.068,0.017
2.068,0.020
2.068,0.068
2.068,0.068
2.069,-0.122
2.069,-0.127
2.069,-0.173
2.070,-0.173
2.070,-0.078
2.070,-0.075
2.070,0.043
2.071,0.048
2.071,0.075
2.071,0.062
2.071,-0.030
2.071,-0.030
2.072,0.075
2.072,-0.097
2.072,0.073
2.072,0.297
2.073,-0.298
2.073,-0.137
2.073,0.020
2.074,-0.027
2.074,0.077
2.074,0.118
2.074,0.062
2.075,0.053
2.075,0.013
2.075,0.033
2.075,0.048
2.075,0.043
2.076,-0.030
2.076,-0.035
2.076,-0.108
2.076,-0.108
2.077,-0.055
2.077,-0.052
2.077,0.005
2.078,0.005
2.078,0.028
2.078,0.030
2.078,0.038
2.079,0.040
2.079,-0.008
2.079,0.010
2.079,0.048
2.079,0.048
2.080,0.068
2.080,0.072
2.080,-0.067
2.080,-0.067
2.081,0.167
2.081,0.028
2.081,-0.163
2.082,-0.107
2.082,0.037
2.082,0.037
2.082,0.047
2.083,0.047
2.083,0.025
2.083,0.022
2.083,0.028
2.083,0.027
2.084,0.032
2.084,0.030
2.084,0.017
2.084,0.017
2.085,0.008
2.085,0.010
2.085,0.005
2.086,0.010
2.086,0.007
2.086,0.008
2.086,0.015
2.087,0.010
2.087,0.018
2.087,0.013
2.087,0.022
2.087,0.013
2.088,0.038
2.088,0.042
2.088,0.108
2.088,0.097
2.089,-0.133
2.089,-0.117
2.089,0.253
2.090,0.257
2.090,0.208
2.090,0.205
2.090,0.105
2.091,0.102
2.091,0.033
2.091,0.033
2.091,0.007
2.091,0.007
2.092,-0.012
2.092,-0.010
2.092,-0.020
2.092,-0.022
2.093,-0.017
2.093,-0.017
2.093,-0.022
2.094,-0.020
2.094,-0.025
2.094,-0.020
2.094,-0.025
2.095,-0.023
2.095,-0.028
2.095,-0.028
2.095,-0.025
2.095,-0.025
2.096,-0.030
2.096,-0.023
2.096,-0.028
2.096,-0.023
2.097,-0.028
2.097,-0.028
2.097,-0.022
2.098,-0.023
2.098,-0.025
2.098,-0.025
2.098,-0.020
2.099,-0.023
2.099,-0.018
2.099,-0.017
2.099,-0.022
2.099,-0.022
2.100,-0.018
2.100,-0.023
2.100,-0.017
2.100,-0.020
2.101,-0.017
2.101,-0.017
2.101,-0.020
2.102,-0.018
2.102,-0.015
2.102,-0.013
2.102,-0.017
2.103,-0.018
2.103,-0.015
2.103,-0.013
2.103,-0.018
2.103,-0.017
2.104,-0.012
2.104,-0.012
2.104,-0.017
2.104,-0.015
2.105,-0.012
2.105,-0.015
2.105,-0.010
2.106,-0.010
2.106,-0.015
2.106,-0.013
2.106,0.003
2.107,0.005
2.107,0.040
2.107,0.040
2.107,0.058
2.107,0.060
2.108,0.047
2.108,0.045
2.108,0.000
2.108,-0.003
2.109,-0.052
2.109,-0.053
2.109,-0.092
2.110,-0.085
2.110,-0.068
2.110,-0.068
2.110,-0.220
2.111,-0.263
2.111,-0.210
2.111,-0.205
2.111,-0.068
2.111,-0.063
2.112,0.013
2.112,0.015
2.112,0.032
2.112,0.032
2.113,0.047
2.113,0.048
2.113,0.072
2.114,0.075
2.114,0.052
2.114,0.042
2.114,0.082
2.115,0.082
2.115,0.087
2.115,0.083
2.115,0.090
2.115,0.087
2.116,0.008
2.116,0.010
2.116,0.075
2.116,0.075
2.117,0.117
2.117,0.082
2.117,-0.048
2.118,-0.078
2.118,-0.013
2.118,0.042
2.118,-0.018
2.119,-0.028
2.119,-0.137
2.119,-0.122
2.119,-0.017
2.119,-0.017
2.120,-0.053
2.120,-0.062
2.120,-0.162
2.120,-0.165
2.121,-0.087
2.121,-0.083
2.121,0.072
2.122,0.097
2.122,0.005
2.122,-0.112
2.122,0.005
2.123,0.007
2.123,0.302
2.123,0.322
2.123,0.503
2.123,0.310
2.124,0.052
2.124,0.052
2.124,0.417
2.124,0.325
2.125,-0.115
2.125,0.120
2.125,0.097
2.126,0.092
2.126,0.012
2.126,0.012
2.126,0.042
2.127,0.043
2.127,0.040
2.127,0.040
2.127,0.013
2.127,0.013
2.128,-0.005
2.128,-0.005
2.128,0.008
2.128,0.008
2.129,0.020
2.129,0.020
2.129,0.053
2.130,0.055
2.130,0.117
2.130,0.122
2.130,-0.002
2.131,-0.017
2.131,-0.375
2.131,-0.392
2.131,-0.255
2.131,-0.245
2.132,0.003
2.132,0.012
2.132,0.123
2.132,0.117
2.133,0.030
2.133,0.033
2.133,0.065
2.134,0.042
2.134,-0.070
2.134,-0.057
2.134,0.027
2.135,0.030
2.135,0.042
2.135,0.035
2.135,0.010
2.135,0.013
2.136,0.028
2.136,0.028
2.136,-0.025
2.136,-0.033
2.137,0.010
2.137,0.012
2.137,0.028
2.138,0.017
2.138,-0.062
2.138,-0.068
2.138,-0.050
2.139,-0.048
2.139,-0.015
2.139,-0.013
2.139,-0.003
2.139,0.000
2.140,-0.010
2.140,-0.013
2.140,-0.007
2.140,-0.005
2.141,-0.012
2.141,-0.010
2.141,-0.017
2.142,-0.018
2.142,-0.013
2.142,-0.015
2.142,-0.012
2.143,-0.015
2.143,-0.008
2.143,-0.008
2.143,-0.017
2.143,-0.018
2.144,-0.012
2.144,-0.012
2.144,-0.003
2.144,-0.005
2.145,0.007
2.145,0.007
2.145,0.033
2.146,0.033
2.146,0.088
2.146,0.090
2.146,0.132
2.147,0.123
2.147,0.028
2.147,0.070
2.147,0.293
2.147,0.210
2.148,0.005
2.148,0.182
2.148,0.428
2.148,0.423
2.149,0.140
2.149,0.130
2.149,0.042
2.150,0.037
2.150,-0.012
2.150,-0.007
2.150,0.005
2.151,0.005
2.151,-0.015
2.151,-0.018
2.151,-0.052
2.151,-0.052
2.152,-0.060
2.152,-0.062
2.152,-0.078
2.152,-0.077
2.153,-0.068
2.153,-0.070
2.153,-0.065
2.154,-0.065
2.154,-0.060
2.154,-0.060
2.154,-0.075
2.155,-0.073
2.155,-0.063
2.155,-0.065
2.155,-0.050
2.155,-0.047
2.156,-0.052
2.156,-0.050
2.156,-0.042
2.156,-0.043
2.157,-0.035
2.157,-0.038
2.157,-0.018
2.158,-0.017
2.158,-0.005
2.158,-0.003
2.158,-0.020
2.159,-0.022
2.159,-0.105
2.159,-0.110
2.159,-0.145
2.159,-0.140
2.160,-0.107
2.160,-0.107
2.160,-0.082
2.160,-0.082
2.161,-0.023
2.161,-0.022
2.161,0.058
2.162,0.057
2.162,0.005
2.162,0.000
2.162,-0.068
2.163,-0.042
2.163,-0.112
2.163,-0.122
2.163,-0.202
2.163,0.147
2.164,-0.157
2.164,-0.148
2.164,-0.052
2.164,-0.050
2.165,-0.025
2.165,0.090
2.165,-0.068
2.166,-0.092
2.166,0.302
2.166,0.282
2.166,-0.290
2.167,0.043
2.167,-0.005
2.167,0.040
2.167,-0.027
2.167,-0.025
2.168,-0.087
2.168,-0.083
2.168,0.027
2.168,0.032
2.169,0.073
2.169,0.073
2.169,0.048
2.170,0.047
2.170,0.022
2.170,0.022
2.170,-0.010
2.171,-0.010
2.171,-0.033
2.171,-0.003
2.171,-0.108
2.171,-0.088
2.172,-0.122
2.172,-0.128
2.172,-0.218
2.172,-0.190
2.173,-0.060
2.173,-0.053
2.173,0.058
2.174,0.060
2.174,0.093
2.174,0.093
2.174,0.083
2.175,0.083
2.175,0.077
2.175,0.073
2.175,0.045
2.175,0.042
2.176,0.013
2.176,0.033
2.176,0.043
2.176,0.043
2.177,0.037
2.177,0.048
2.177,-0.018
2.178,-0.028
2.178,-0.010
2.178,-0.007
2.178,0.040
2.179,0.040
2.179,-0.080
2.179,-0.073
2.179,0.002
2.179,0.003
2.180,0.032
2.180,0.033
2.180,0.013
2.180,0.010
2.181,0.038
2.181,0.040
2.181,0.128
2.182,0.148
2.182,-0.082
2.182,0.167
2.182,0.262
2.183,0.247
2.183,0.160
2.183,0.155
2.183,0.063
2.183,0.062
2.184,0.015
2.184,0.015
2.184,-0.002
2.184,-0.002
2.185,-0.017
2.185,-0.013
2.185,-0.022
2.186,-0.017
2.186,-0.023
2.186,-0.020
2.186,-0.023
2.187,-0.023
2.187,-0.030
2.187,-0.028
2.187,-0.025
2.188,-0.028
2.188,-0.023
2.188,-0.028
2.188,-0.022
2.188,-0.023
2.189,-0.015
2.189,-0.022
2.189,-0.008
2.189,-0.007
2.190,0.018
2.190,0.020
2.190,0.063
2.191,0.065
2.191,0.095
2.191,0.083
2.191,-0.070
2.192,-0.035
2.192,0.097
2.192,0.105
2.192,0.297
2.192,0.297
2.193,0.117
2.193,0.120
2.193,0.167
2.193,0.148
2.194,0.068
2.194,0.068
2.194,0.048
2.195,0.045
2.195,-0.063
2.195,-0.067
2.195,-0.038
2.196,-0.038
2.196,-0.027
2.196,-0.032
2.196,-0.045
2.196,-0.043
2.197,-0.050
2.197,-0.050
2.197,-0.045
2.197,-0.045
2.198,-0.050
2.198,-0.050
2.198,-0.043
2.199,-0.048
2.199,-0.043
2.199,-0.043
2.199,-0.047
2.200,-0.047
2.200,-0.043
2.200,-0.042
2.200,-0.047
2.200,-0.047
2.201,-0.043
2.201,-0.042
2.201,-0.045
2.201,-0.045
2.202,-0.038
2.202,-0.043
2.202,-0.038
2.203,-0.042
2.203,-0.038
2.203,-0.035
2.203,-0.040
2.204,-0.037
2.204,-0.038
2.204,-0.037
2.204,-0.033
2.204,-0.032
2.205,-0.035
2.205,-0.035
2.205,-0.030
2.205,-0.030
2.206,-0.035
2.206,-0.028
2.206,-0.033
2.207,-0.028
2.207,-0.033
2.207,-0.028
2.207,-0.033
2.208,-0.027
2.208,-0.030
2.208,-0.030
2.208,-0.025
2.208,-0.025
2.209,-0.032
2.209,-0.028
2.209,-0.025
2.209,-0.027
2.210,-0.022
2.210,-0.023
2.210,-0.025
2.211,-0.023
2.211,-0.018
2.211,-0.022
2.211,-0.018
2.212,-0.022
2.212,-0.017
2.212,-0.020
2.212,-0.015
2.212,-0.018
2.213,-0.013
2.213,-0.017
2.213,-0.010
2.213,-0.010
2.214,-0.007
2.214,-0.010
2.214,-0.003
2.215,-0.003
2.215,-0.008
2.215,-0.002
2.215,-0.008
2.216,-0.003
2.216,-0.008
2.216,-0.007
2.216,-0.013
2.216,-0.013
2.217,-0.017
2.217,-0.018
2.217,-0.013
2.217,-0.015
2.218,0.000
2.218,0.000
2.218,0.012
2.219,0.013
2.219,0.023
2.219,0.020
2.219,0.027
2.220,0.023
2.220,0.017
2.220,0.018
2.220,0.058
2.220,0.060
2.221,0.112
2.221,0.108
2.221,-0.143
2.221,-0.160
2.222,-0.388
2.222,-0.382
2.222,-0.173
2.223,-0.163
2.223,0.063
2.223,0.072
2.223,0.155
2.224,0.137
2.224,0.033
2.224,0.023
2.224,-0.223
2.224,-0.228
2.225,-0.065
2.225,-0.065
2.225,-0.037
2.225,-0.032
2.226,0.078
2.226,0.083
2.226,0.110
2.227,0.103
2.227,0.057
2.227,0.050
2.227,-0.007
2.228,0.035
2.228,0.005
2.228,0.002
2.228,-0.082
2.228,-0.090
2.229,-0.063
2.229,-0.060
2.229,0.000
2.229,0.002
2.230,0.032
2.230,0.033
2.230,-0.012
2.231,-0.018
2.231,0.017
2.231,0.018
2.231,0.043
2.232,0.027
2.232,-0.020
2.232,-0.013
2.232,0.037
2.232,0.038
2.233,0.063
2.233,0.042
2.233,-0.042
2.233,-0.047
2.234,0.120
2.234,0.287
2.234,-0.227
2.235,-0.075
2.235,0.055
2.235,0.057
2.235,0.072
2.236,0.068
2.236,0.043
2.236,0.042
2.236,0.018
2.236,0.020
2.237,0.005
2.237,0.007
2.237,0.003
2.237,0.003
2.238,0.000
2.238,0.002
2.238,0.007
2.239,0.003
2.239,0.012
2.239,0.010
2.239,0.017
2.240,0.017
2.240,0.012
2.240,0.012
2.240,0.003
2.240,0.005
2.241,-0.005
2.241,-0.007
2.241,-0.003
2.241,-0.005
2.242,-0.002
2.242,-0.003
2.242,0.000
2.243,-0.005
2.243,-0.018
2.243,-0.018
2.243,-0.027
2.244,-0.025
2.244,-0.013
2.244,-0.015
2.244,-0.002
2.244,-0.003
2.245,0.013
2.245,0.013
2.245,0.032
2.245,0.032
2.246,0.043
2.246,0.043
2.246,0.035
2.247,0.032
2.247,-0.022
2.247,-0.027
2.247,-0.115
2.248,-0.117
2.248,-0.073
2.248,-0.070
2.248,-0.010
2.248,-0.008
2.249,0.012
2.249,0.012
2.249,0.040
2.249,0.050
2.250,0.005
2.250,0.002
2.250,0.045
2.251,0.048
2.251,0.077
2.251,0.070
2.251,-0.063
2.252,-0.073
2.252,0.142
2.252,0.100
2.252,0.180
2.252,-0.153
2.253,-0.115
2.253,0.067
2.253,0.073
2.253,0.102
2.254,0.095
2.254,0.030
2.254,0.027
2.255,-0.020
2.255,-0.022
2.255,-0.048
2.255,-0.035
2.256,-0.008
2.256,-0.013
2.256,-0.187
2.256,-0.213
2.256,-0.162
2.257,-0.157
2.257,-0.058
2.257,-0.055
2.257,-0.007
2.258,-0.005
2.258,0.033
2.258,0.035
2.259,0.093
2.259,0.120
2.259,0.072
2.259,0.063
2.260,-0.002
2.260,0.030
2.260,-0.110
2.260,-0.085
2.260,0.002
2.261,0.008
2.261,0.125
2.261,0.128
2.261,0.020
2.262,0.017
2.262,-0.027
2.262,0.085
2.263,-0.148
2.263,-0.227
2.263,0.170
2.263,0.168
2.264,-0.392
2.264,-0.042
2.264,0.027
2.264,0.033
2.264,0.117
2.265,0.125
2.265,0.032
2.265,0.028
2.265,0.070
2.266,0.072
2.266,0.082
2.266,0.080
2.267,0.065
2.267,0.065
2.267,0.055
2.267,0.052
2.268,-0.065
2.268,-0.080
2.268,-0.030
2.268,-0.025
2.268,0.095
2.269,0.117
2.269,0.047
2.269,0.043
2.269,-0.085
2.270,-0.097
2.270,-0.012
2.270,0.050
2.271,-0.073
2.271,-0.075
2.271,0.032
2.271,0.038
2.272,0.325
2.272,0.342
2.272,0.440
2.272,0.405
2.272,0.320
2.273,0.303
2.273,0.408
2.273,0.403
2.273,0.040
2.274,0.095
2.274,0.387
2.274,0.437
2.275,0.223
2.275,0.212
2.275,0.093
2.275,0.100
2.276,0.032
2.276,0.032
2.276,0.040
2.276,0.033
2.276,0.013
2.277,0.012
2.277,-0.035
2.277,-0.038
2.277,-0.055
2.278,-0.057
2.278,-0.075
2.278,-0.078
2.279,-0.073
2.279,-0.077
2.279,-0.070
2.279,-0.073
2.280,-0.070
2.280,-0.067
2.280,-0.085
2.280,-0.088
2.280,-0.085
2.281,-0.087
2.281,-0.073
2.281,-0.073
2.281,-0.068
2.282,-0.068
2.282,-0.065
2.282,-0.065
2.283,-0.072
2.283,-0.075
2.283,-0.068
2.283,-0.070
2.284,-0.057
2.284,-0.057
2.284,-0.070
2.284,-0.070
2.284,-0.088
2.285,-0.087
2.285,-0.097
2.285,-0.098
2.285,-0.090
2.286,-0.092
2.286,-0.077
2.286,-0.078
2.287,-0.067
2.287,-0.065
2.287,-0.057
2.287,-0.057
2.288,-0.052
2.288,-0.052
2.288,-0.045
2.288,-0.047
2.288,-0.033
2.289,-0.033
2.289,-0.028
2.289,-0.028
2.289,-0.025
2.290,-0.025
2.290,-0.020
2.290,-0.033
2.291,-0.003
2.291,-0.002
2.291,0.042
2.291,0.123
2.292,-0.107
2.292,-0.093
2.292,0.218
2.292,0.217
2.292,0.148
2.293,0.142
2.293,0.037
2.293,0.033
2.293,-0.017
2.294,-0.017
2.294,-0.033
2.294,-0.033
2.295,-0.052
2.295,-0.052
2.295,-0.072
2.295,-0.070
2.296,-0.057
2.296,-0.055
2.296,-0.035
2.296,-0.037
2.296,-0.027
2.297,-0.027
2.297,-0.015
2.297,-0.018
2.297,-0.007
2.298,-0.008
2.298,0.007
2.298,0.005
2.299,0.013
2.299,0.012
2.299,0.015
2.299,0.013
2.300,0.007
2.300,0.007
2.300,0.038
2.300,0.042
2.300,0.093
2.301,0.093
2.301,-0.115
2.301,-0.132
2.301,-0.418
2.302,-0.420
2.302,-0.230
2.302,-0.220
2.303,0.015
2.303,0.022
2.303,0.112
2.303,0.098
2.304,0.033
2.304,0.053
2.304,-0.015
2.304,-0.028
2.304,-0.088
2.305,-0.070
2.305,0.005
2.305,0.008
2.305,0.022
2.306,0.022
2.306,0.013
2.306,0.017
2.307,0.022
2.307,0.017
2.307,-0.050
2.307,-0.052
2.308,-0.020
2.308,-0.020
2.308,-0.008
2.308,-0.010
2.308,-0.003
2.309,-0.005
2.309,0.003
2.309,0.003
2.309,0.008
2.310,0.008
2.310,-0.020
2.310,-0.025
2.311,-0.020
2.311,-0.020
2.311,-0.005
2.311,-0.007
2.312,0.010
2.312,0.012
2.312,0.040
2.312,0.047
2.312,0.018
2.313,0.017
2.313,-0.033
2.313,-0.032
2.313,0.005
2.314,0.010
2.314,0.007
2.314,0.005
2.314,-0.003
2.315,-0.003
2.315,0.018
2.315,0.020
2.316,0.068
2.316,0.068
2.316,-0.080
2.316,-0.103
2.317,-0.037
2.317,-0.002
2.317,-0.070
2.317,-0.097
2.317,-0.068
2.318,-0.065
2.318,0.017
2.318,0.018
2.318,0.043
2.319,0.038
2.319,-0.022
2.319,-0.023
2.320,0.003
2.320,0.002
2.320,0.017
2.320,0.017
2.321,0.010
2.321,0.015
2.321,-0.008
2.321,-0.012
2.321,-0.067
2.322,-0.075
2.322,-0.045
2.322,-0.043
2.322,-0.003
2.323,-0.003
2.323,0.028
2.323,0.032
2.324,0.012
2.324,0.010
2.324,-0.003
2.324,0.000
2.325,0.010
2.325,0.007
2.325,0.022
2.325,0.027
2.325,0.017
2.326,0.020
2.326,0.013
2.326,0.013
2.326,0.018
2.327,0.017
2.327,0.013
2.327,0.015
2.328,0.008
2.328,0.012
2.328,0.007
2.328,0.008
2.329,0.005
2.329,0.008
2.329,0.007
2.329,0.008
2.329,0.003
2.330,0.003
2.330,0.008
2.330,0.003
2.330,0.010
2.331,0.008
2.331,0.022
2.331,0.022
2.332,0.035
2.332,0.035
2.332,0.040
2.332,0.037
2.333,0.020
2.333,0.017
2.333,-0.068
2.333,-0.073
2.333,-0.117
2.334,-0.112
2.334,-0.047
2.334,-0.042
2.334,0.025
2.335,0.027
2.335,0.075
2.335,0.078
2.336,0.120
2.336,0.120
2.336,0.055
2.336,0.058
2.337,0.028
2.337,0.025
2.337,-0.058
2.337,-0.055
2.337,-0.173
2.338,-0.140
2.338,0.158
2.338,-0.172
2.338,-0.037
2.339,-0.028
2.339,0.043
2.339,0.037
2.340,0.028
2.340,0.032
2.340,-0.033
2.340,-0.040
2.341,-0.087
2.341,-0.058
2.341,0.008
2.341,0.000
2.341,-0.198
2.342,-0.252
2.342,-0.187
2.342,-0.180
2.342,0.182
2.343,0.292
2.343,-0.192
2.343,0.007
2.344,0.112
2.344,0.112
2.344,0.127
2.344,0.127
2.345,0.110
2.345,0.108
2.345,0.075
2.345,0.115
2.345,0.005
2.346,0.003
2.346,0.050
2.346,0.050
2.346,0.110
2.347,0.108
2.347,0.047
2.347,0.058
2.348,0.110
2.348,0.118
2.348,-0.015
2.348,-0.020
2.349,-0.155
2.349,-0.100
2.349,0.047
2.349,0.055
2.349,0.323
2.350,0.327
2.350,0.183
2.350,0.162
2.350,0.188
2.351,0.225
2.351,0.135
2.351,0.133
2.352,0.127
2.352,0.125
2.352,0.028
2.352,0.035
2.353,-0.027
2.353,-0.032
2.353,-0.077
2.353,-0.062
2.353,-0.013
2.354,-0.013
2.354,0.007
2.354,0.003
2.354,-0.012
2.355,-0.012
2.355,-0.020
2.355,-0.018
2.356,-0.023
2.356,-0.017
2.356,-0.020
2.356,-0.020
2.357,-0.015
2.357,-0.017
2.357,-0.020
2.357,-0.017
2.357,-0.022
2.358,-0.018
2.358,-0.022
2.358,-0.022
2.358,-0.018
2.359,-0.018
2.359,-0.023
2.359,-0.020
2.360,-0.023
2.360,-0.020
2.360,-0.027
2.360,-0.027
2.361,-0.020
2.361,-0.022
2.361,-0.007
2.361,-0.007
2.361,0.000
2.362,-0.003
2.362,-0.013
2.362,-0.015
2.362,-0.048
2.363,-0.050
2.363,-0.085
2.363,-0.090
2.364,-0.075
2.364,-0.073
2.364,-0.022
2.364,-0.020
2.365,0.032
2.365,0.028
2.365,-0.082
2.365,-0.065
2.365,-0.098
2.366,-0.098
2.366,-0.062
2.366,-0.060
2.366,0.025
2.367,0.027
2.367,0.045
2.367,0.025
2.368,-0.070
2.368,-0.072
2.368,0.045
2.368,-0.140
2.369,0.045
2.369,0.280
2.369,-0.325
2.369,-0.160
2.369,-0.017
2.370,-0.052
2.370,0.062
2.370,0.093
2.370,0.020
2.371,0.013
2.371,-0.017
2.371,0.012
2.372,0.002
2.372,-0.003
2.372,0.002
2.372,0.000
2.373,0.010
2.373,0.008
2.373,0.000
2.373,0.002
2.373,-0.002
2.374,-0.005
2.374,0.003
2.374,0.000
2.374,0.005
2.375,0.002
2.375,0.005
2.375,0.002
2.376,0.008
2.376,0.010
2.376,0.005
2.376,0.008
2.377,0.003
2.377,0.003
2.377,-0.005
2.377,-0.003
2.377,-0.018
2.378,-0.017
2.378,-0.028
2.378,-0.025
2.378,-0.012
2.379,-0.012
2.379,-0.002
2.379,-0.002
2.380,-0.012
2.380,-0.013
2.380,-0.030
2.380,-0.033
2.381,-0.022
2.381,-0.022
2.381,-0.003
2.381,-0.002
2.381,0.008
2.382,0.008
2.382,0.005
2.382,0.007
2.382,0.010
2.383,0.010
2.383,0.005
2.383,0.007
2.384,0.012
2.384,0.005
2.384,0.008
2.384,0.005
2.385,0.002
2.385,0.005
2.385,0.000
2.385,0.005
2.385,-0.002
2.386,0.003
2.386,-0.003
2.386,0.002
2.386,-0.003
2.387,0.002
2.387,-0.003
2.387,0.000
2.388,-0.005
2.388,-0.003
2.388,-0.008
2.388,-0.005
2.389,-0.013
